t_sec,ECG
0.0,0.033810514076007124
0.004,-0.008904061934756062
0.008,0.0014857457008057512
0.012,0.009394267990525578
0.016,-0.014120003905370958
0.02,0.0021141683818832247
0.024,0.002469306878030344
0.028,-0.032193284940950286
0.032,0.02366824832564988
0.036000000000000004,0.015738717522881297
0.04,-0.008366429771324773
0.044,0.0011243020623903873
0.048,0.015074059006272058
0.052000000000000005,0.00015340571679148523
0.056,0.0009376448357404791
0.06,-0.02286050790829476
0.064,0.01770719373634271
0.068,0.009504017696131978
0.07200000000000001,0.012925926833929688
0.076,-0.02268394505907738
0.08,0.041269816882872415
0.084,0.01175124335743958
0.088,0.001329847366275217
0.092,0.05006158015260916
0.096,0.00897925253735199
0.1,-0.01872044354443743
0.10400000000000001,0.0025940226023592073
0.108,-0.034663008977171145
0.112,0.032495173640473676
0.116,0.003580914328148454
0.12,-0.002538331038959356
0.124,0.034163633909271546
0.128,-0.019906663269016286
0.132,0.02422315075849213
0.136,-0.027374946941176162
0.14,0.0010679907624175332
0.14400000000000002,-0.00937637534185044
0.148,0.04434336641105929
0.152,0.05082186477623694
0.156,0.009304099427895795
0.16,0.03309967337194232
0.164,0.013076794373305826
0.168,0.028428126889573975
0.17200000000000001,0.002399337982547425
0.176,-0.01632271013242643
0.18,-0.017831134655496263
0.184,0.02627878609138034
0.188,0.06395248009542653
0.192,0.02477173464343244
0.196,0.009272999310171903
0.2,0.05838569903232195
0.20400000000000001,0.025270203073689945
0.20800000000000002,0.022930278408718977
0.212,0.026329148225032798
0.216,0.019004580754448528
0.22,0.015835639705483736
0.224,-0.00630257603270969
0.228,0.03279916192548857
0.232,0.021239590579897386
0.23600000000000002,0.0473636467729224
0.24,0.016490771071976378
0.244,-0.013896686759013632
0.248,0.022600401791289623
0.252,0.0589435723344485
0.256,0.017642859486120446
0.26,0.007870939184717804
0.264,0.002151226795499589
0.268,0.0053759278112884175
0.272,0.020723773750112546
0.276,0.003477552560846621
0.28,0.057377660132285194
0.28400000000000003,0.022117970019548575
0.28800000000000003,0.030287528835809506
0.292,0.057221304574721375
0.296,0.05886287988995255
0.3,0.02487986464307759
0.304,0.036110018724323505
0.308,0.04450504934945324
0.312,0.026279341544851693
0.316,-0.0050939462074081135
0.32,0.04388818934569163
0.324,0.04900676756199429
0.328,0.03975327931942511
0.332,0.013293676588095889
0.336,0.02816318118197492
0.34,0.020585281819686677
0.34400000000000003,0.026721175480219937
0.34800000000000003,0.05896557572342742
0.352,0.06392966429724044
0.356,0.04703434203877073
0.36,0.04492647270815529
0.364,0.0477874068258229
0.368,0.03431088374473846
0.372,0.03334098171135519
0.376,0.021677473145398356
0.38,0.034326735961787744
0.384,0.08093429468006093
0.388,0.053404953397215474
0.392,0.029468160225099967
0.396,0.027155803875443654
0.4,0.01958585625955692
0.404,0.044641846565910574
0.40800000000000003,0.04526158564142149
0.41200000000000003,0.00884191740085034
0.41600000000000004,0.04770223426391867
0.42,0.02685504196287127
0.424,0.06704672452962111
0.428,0.041919612807160195
0.432,0.07342236950164042
0.436,0.030239999755511664
0.44,0.03412201479801231
0.444,0.04673548565724754
0.448,0.06362405745740929
0.452,0.05758884683512604
0.456,0.029407262807508112
0.46,0.0730041551712388
0.464,0.09759883159855072
0.468,0.13541332908645376
0.47200000000000003,0.20365644281223863
0.47600000000000003,0.3547066260246637
0.48,0.4452494924913475
0.484,0.591404893955285
0.488,0.781281855795681
0.492,0.9126499437683576
0.496,1.0063773695396812
0.5,1.058663137571207
0.504,1.0180883393473033
0.508,0.9181256235287365
0.512,0.7890900451574165
0.516,0.615684521434144
0.52,0.4428291231830111
0.524,0.3150415253386316
0.528,0.20915276508215191
0.532,0.15156417649103932
0.536,0.0793904124546229
0.54,0.0369146733076029
0.544,0.060478479591111044
0.548,0.024598694386023037
0.552,0.008943358813919375
0.556,0.05410330778467887
0.56,0.031977140226790525
0.5640000000000001,0.056060260110532195
0.5680000000000001,0.035604150260184084
0.5720000000000001,0.02391469083352306
0.5760000000000001,0.021630384459399157
0.58,0.03635105463558831
0.584,0.041329086126393556
0.588,0.030471854225627364
0.592,0.04146007694963176
0.596,0.01649815125071919
0.6,0.0476446943726259
0.604,0.011613402407229148
0.608,0.04373744639436417
0.612,0.06168537519128242
0.616,0.06969990545991916
0.62,0.0822670785583636
0.624,0.01696876453556485
0.628,0.06338075706721538
0.632,0.07244031656811756
0.636,0.06803090860048239
0.64,0.029935058178535544
0.644,0.056855899038803503
0.648,0.08591615938519401
0.652,0.01886130566553854
0.656,0.05842190782769685
0.66,0.07122597550442201
0.664,0.03512998825786276
0.668,0.06079948261170866
0.672,0.02779711417240355
0.676,0.03304229515004307
0.68,0.03301297403011873
0.684,0.05326545018751335
0.6880000000000001,0.0476609887396482
0.6920000000000001,0.06862083245078406
0.6960000000000001,0.03078745265073874
0.7000000000000001,0.04701861722664071
0.704,0.06891333993285051
0.708,0.060951616396701186
0.712,0.02328408734647035
0.716,0.06311840486868367
0.72,0.040279964116410986
0.724,0.05758661410680584
0.728,0.05591962227698208
0.732,0.074316089408479
0.736,0.05228117377127516
0.74,0.012890684894909916
0.744,0.022582998237511847
0.748,0.06461323264013533
0.752,0.04483033191919929
0.756,0.07275931432801566
0.76,0.05546814470526878
0.764,0.03501424955167466
0.768,0.07163645635407959
0.772,0.03382968588138585
0.776,0.008910809896895966
0.78,0.09122187480340538
0.784,0.011709994326402184
0.788,0.06262880297604817
0.792,0.06864972259436097
0.796,0.05278271531335781
0.8,0.016138743584396847
0.804,0.0700688355300155
0.808,0.020896095433252593
0.812,0.022809410854286595
0.8160000000000001,0.04240021082027448
0.8200000000000001,0.06535184934242598
0.8240000000000001,0.05552880619072638
0.8280000000000001,0.06568325723647771
0.8320000000000001,0.04053297561641672
0.836,0.045896748732366564
0.84,0.02652884696706225
0.844,0.04286205269826022
0.848,0.06098631956457546
0.852,0.04304821114849744
0.856,0.05847160539095024
0.86,0.03741120336250017
0.864,0.03693976856551316
0.868,0.049478529500739055
0.872,0.04470173295088348
0.876,0.060347931365251406
0.88,0.051963558676107656
0.884,0.08309887795597147
0.888,0.043792938313148844
0.892,0.04352533742089045
0.896,0.027152024544603304
0.9,0.048291161926325245
0.904,0.06136984765096714
0.908,0.03278174030586872
0.912,0.04646531873287246
0.916,0.06169774550919906
0.92,0.04465301819682303
0.924,0.03666979989376482
0.928,0.06637251707793558
0.932,0.048705926685255335
0.936,0.05454848994923285
0.9400000000000001,0.06989352665080453
0.9440000000000001,0.06921723760428183
0.9480000000000001,0.03920891159374005
0.9520000000000001,0.035483302145215875
0.9560000000000001,0.05151381285735779
0.96,0.04300446880564832
0.964,0.00749243762407497
0.968,0.07082321411389295
0.972,0.04552640424017647
0.976,0.05968683031316501
0.98,0.021317940380191833
0.984,0.07035426351009516
0.988,0.032635789666147566
0.992,0.042055503564513735
0.996,0.01598510990101441
1.0,0.040476339267561424
1.004,0.03901797213836889
1.008,0.039702556728129015
1.012,0.051972593066240094
1.016,0.04419917410682731
1.02,0.062294711289875626
1.024,0.03319975407887938
1.028,0.022423530854616878
1.032,0.041739739735603236
1.036,0.054464349404678175
1.04,0.06656206328875408
1.044,0.05771702939860854
1.048,0.005896309763335786
1.052,0.04850997833829464
1.056,0.06993711658266069
1.06,0.041739276733864204
1.064,0.029922182664042396
1.068,0.046178764791233715
1.072,0.029680471957680005
1.076,0.05227460491208652
1.08,0.038976765564933
1.084,0.06683827203013484
1.088,0.0487072576456986
1.092,0.023975778957144436
1.096,0.050279723288549294
1.1,0.05663832976905829
1.104,0.02627736855760716
1.108,0.02885639791136698
1.112,-0.00900814992296712
1.116,0.054884313234324605
1.12,0.024779251213823517
1.124,-0.00619701819031282
1.1280000000000001,0.0005876760867272804
1.1320000000000001,0.031214772010111115
1.1360000000000001,0.05059518571348875
1.1400000000000001,0.03330647128087735
1.1440000000000001,0.04422668261682504
1.1480000000000001,0.012462105506656582
1.1520000000000001,0.007363383505509236
1.156,0.05160135831750022
1.16,0.04342374653054657
1.164,0.03266228559136555
1.168,0.058603631627444384
1.172,0.013625019166905686
1.176,0.02392830528564171
1.18,0.052543637604097304
1.184,0.06845247580513861
1.188,0.0315432966269674
1.192,0.06464121127507216
1.196,0.018674513432811842
1.2,0.036991511847284796
1.204,0.02658974149844012
1.208,-0.0020311258535925664
1.212,0.034558884794565155
1.216,0.047717984482972584
1.22,0.02575921351853868
1.224,0.02697503899882602
1.228,0.05590032289485383
1.232,0.0027032113004816713
1.236,-0.0026004827370455057
1.24,0.013922420259659805
1.244,0.002720809485995724
1.248,0.05322727940227641
1.252,0.032141695709320406
1.256,0.00831068598111221
1.26,0.012945839605807332
1.264,0.08209790844721163
1.268,0.012314208017026356
1.272,0.008913335765221306
1.276,0.029876393158551513
1.28,0.036191105433318056
1.284,0.02749758690653931
1.288,0.0045401388971925555
1.292,-0.0007854661286372626
1.296,0.034115592613065626
1.3,0.021194758206442493
1.304,-0.009749638179476532
1.308,0.0489111355808156
1.312,0.04674610095942604
1.316,0.038491454630772574
1.32,0.06109739803639284
1.324,0.11100551386314897
1.328,0.15665214290866242
1.332,0.23698278498377331
1.336,0.3949226255531472
1.34,0.5094302638581425
1.344,0.7064184447283345
1.348,0.8186332177583824
1.352,0.9575278053082236
1.356,1.0105906382737662
1.36,1.0334844926621323
1.364,0.8949113141860121
1.368,0.7562704719343366
1.372,0.6140073471674432
1.3760000000000001,0.4455044058610895
1.3800000000000001,0.31520714952324397
1.3840000000000001,0.2231572360173343
1.3880000000000001,0.14899204687378867
1.3920000000000001,0.11302282895712541
1.3960000000000001,0.03239345789785568
1.4000000000000001,0.08147561003998582
1.4040000000000001,0.05866923606215946
1.408,0.010137194847542379
1.412,-0.033969178049562815
1.416,0.00899845792156006
1.42,0.011404654963139332
1.424,-0.03654268247476035
1.428,0.01047703736308568
1.432,0.004578708502372392
1.436,-0.007544175820074106
1.44,0.02029247951645718
1.444,0.027456750696150712
1.448,-0.002784236643798673
1.452,0.011117983364356088
1.456,-0.006978810939020663
1.46,-0.010026865190437426
1.464,0.00688300636638081
1.468,0.015348965768421458
1.472,-0.00679819566473047
1.476,-0.04021891411571411
1.48,0.015356718683854218
1.484,-0.028703844176501278
1.488,0.00525335281575816
1.492,0.0379797797143589
1.496,0.0016483738854756317
1.5,-0.022224462139265034
1.504,-0.028067577848410217
1.508,0.024150619203133373
1.512,-1.2246599458028183e-05
1.516,0.010706805289917007
1.52,0.018023389601022767
1.524,-0.0018973394680860665
1.528,-0.007503962499848638
1.532,-0.020693324190947514
1.536,-0.0638108379545906
1.54,-0.032934976281850416
1.544,-0.004380883176440182
1.548,-0.006908094401284729
1.552,0.0042547364231694425
1.556,-0.006763542242552054
1.56,-0.0014557087144825
1.564,0.010700382750503975
1.568,-0.02316887821408489
1.572,-0.011623147660937496
1.576,-0.03843585208380846
1.58,0.012755087321343346
1.584,-0.006345121948789963
1.588,0.002272739759725282
1.592,0.02291625493850277
1.596,0.01324834947199728
1.6,-0.009951181809137464
1.604,0.006594570335627223
1.608,-0.03820057230919519
1.612,-0.001294996561956415
1.616,-0.007600993437848352
1.62,-0.043149870617868916
1.624,0.015557356458580517
1.6280000000000001,-0.025674371632970303
1.6320000000000001,0.0016687597124987585
1.6360000000000001,-0.0207966747341499
1.6400000000000001,0.007071573093288503
1.6440000000000001,0.01304552238291248
1.6480000000000001,-0.03020022266392051
1.6520000000000001,-0.04460579174778805
1.6560000000000001,-0.017023640765041627
1.6600000000000001,0.002186261281412605
1.6640000000000001,-0.02261392889838259
1.668,-0.027852726800108647
1.672,-0.006210107619957234
1.676,-0.07159850080406455
1.68,-0.030053735699942814
1.684,-0.04482547022079457
1.688,-0.011642210411962315
1.692,-0.03265120418688862
1.696,-0.0406160723279476
1.7,-0.025774583765117286
1.704,-0.04845008367729978
1.708,-0.019727032467875674
1.712,-0.033493308072561775
1.716,-0.02777418012214653
1.72,-0.034947108372691466
1.724,-0.0027362181797990597
1.728,-0.023534236336728062
1.732,-0.011241143458692333
1.736,-0.0125083957416141
1.74,-0.03859832387202007
1.744,-0.011445493937355338
1.748,-0.01623087609497974
1.752,-0.01730656213852611
1.756,-0.03191826509573514
1.76,-0.03284450018085316
1.764,-0.008958125595481387
1.768,0.01861017617102678
1.772,-0.041989686592782335
1.776,-0.015054561279753343
1.78,-0.033423187164802186
1.784,-0.010753820572294293
1.788,-0.018035682893363658
1.792,-0.005948590913600341
1.796,-0.08339408236133031
1.8,-0.03986543439073775
1.804,-0.04795096360328012
1.808,-0.030688552166764818
1.812,-0.04334569145861783
1.816,-0.04202547832257559
1.82,-0.015904353119104542
1.824,0.00816346308657533
1.828,-0.08668320639660207
1.832,-0.036745012654432904
1.836,-0.024622253662567314
1.84,-0.031093861498172504
1.844,-0.03841427382413433
1.848,-0.05890180424693958
1.852,-0.051004591698705685
1.856,-0.017967984924450106
1.86,-0.011266621661094715
1.864,-0.03116037072260997
1.868,-0.050127024884614645
1.872,-0.03179677546486738
1.8760000000000001,-0.03881688891771245
1.8800000000000001,-0.02340675959875438
1.8840000000000001,-0.03225326760520274
1.8880000000000001,-0.04735305688621546
1.8920000000000001,-0.03139942002899531
1.8960000000000001,-0.05909416759130012
1.9000000000000001,-0.019396585773940142
1.9040000000000001,-0.012438407499141341
1.9080000000000001,-0.0599409991174257
1.9120000000000001,-0.02823328230809619
1.9160000000000001,-0.056760249314815235
1.92,-0.015779558829895
1.924,-0.019406555803448182
1.928,-0.04236559443824738
1.932,-0.018133863196386456
1.936,-0.04692225021540611
1.94,-0.051425878870116626
1.944,-0.05020268246746062
1.948,-0.04190523209549665
1.952,-0.0458136912195136
1.956,-0.03651309527867673
1.96,-0.05215297819490938
1.964,-0.024806956235292554
1.968,-0.019927805934310188
1.972,-0.05050796678268435
1.976,-0.06937496857004205
1.98,-0.026591945147393187
1.984,-0.018533389018726157
1.988,-0.044801759437171865
1.992,-0.06749654576743602
1.996,-0.036657526365862114
2.0,-0.011723033694945796
2.004,-0.07996367581985772
2.008,-0.03309645849485842
2.012,-0.049142557590449616
2.016,-0.06019528803412806
2.02,-0.0333268035283629
2.024,-0.0694733963278379
2.028,-0.03776091668905355
2.032,-0.017634638154017463
2.036,-0.04056301669319054
2.04,-0.06181720548585391
2.044,-0.0800678378315979
2.048,-0.07030867407485121
2.052,-0.08167872723480982
2.056,-0.013043324863768947
2.06,-0.050204254425939614
2.064,-0.06629332577494268
2.068,-0.07152657794434149
2.072,-0.06707653447377884
2.076,-0.05261456433796446
2.08,-0.07171284075269929
2.084,-0.012694229778759697
2.088,-0.06132474333191565
2.092,-0.06218199711125856
2.096,-0.04052535889606888
2.1,-0.017815807213212315
2.104,-0.020491724302426247
2.108,-0.05686815173262788
2.112,-0.04214048394160497
2.116,-0.04439716416022651
2.12,-0.036915950986869915
2.124,-0.042527238686463964
2.128,-0.06664207175243464
2.132,-0.07309001854301077
2.136,-0.04448982510837768
2.14,-0.07178453487818265
2.144,-0.02094798682734
2.148,-0.04748116280482916
2.152,-0.06878292958614785
2.156,-0.05444895697523567
2.16,-0.0573546568317409
2.164,-0.047732144315738856
2.168,-0.021350208632298716
2.172,-0.058994812185999224
2.176,-0.047858047576148345
2.18,0.031051977366241025
2.184,0.07755108802311718
2.188,0.16939941240389436
2.192,0.29124026760741967
2.196,0.42267682368208453
2.2,0.6019521962717677
2.204,0.7231369693984315
2.208,0.8676808085167973
2.212,0.9222377596933707
2.216,0.9212380227603423
2.22,0.8926152439898378
2.224,0.7724592695692032
2.228,0.5697643620545166
2.232,0.4256540021650807
2.236,0.3066928960910452
2.24,0.20158601478351534
2.244,0.07733433879398839
2.248,0.02637613788284989
2.2520000000000002,-0.0358296420582595
2.2560000000000002,0.021170514938274116
2.2600000000000002,-0.030860936180847898
2.2640000000000002,-0.02798096385085194
2.2680000000000002,-0.0351948025508143
2.2720000000000002,-0.0307250910894324
2.2760000000000002,-0.03762619519799079
2.2800000000000002,-0.05663009114287526
2.2840000000000003,-0.03508568215471422
2.2880000000000003,-0.04838643334390514
2.2920000000000003,-0.024027078470101642
2.2960000000000003,-0.06465239524278893
2.3000000000000003,-0.06074520776694929
2.3040000000000003,-0.03667182181003978
2.308,-0.024273424690202564
2.312,-0.046931092890359516
2.316,-0.06404943042961282
2.32,-0.05213912297038232
2.324,-0.05968219424859872
2.328,-0.011735248270866028
2.332,-0.03164868730449476
2.336,-0.02428146731169106
2.34,-0.043483479704619604
2.344,-0.06055747645783271
2.348,-0.025926982436338807
2.352,-0.016247106574410662
2.356,-0.03761736024483442
2.36,-0.04966865329272933
2.364,-0.02748780886357825
2.368,-0.05644988111018775
2.372,-0.033653699509969666
2.376,-0.06308975601191938
2.38,-0.06817558910640234
2.384,-0.03734621875682949
2.388,-0.04182000900889846
2.392,-0.010392640945547267
2.396,-0.05397773027764541
2.4,-0.04780013084561242
2.404,-0.07095804092576884
2.408,-0.08543171935653726
2.412,-0.08354597061756512
2.416,-0.03854777000066478
2.42,-0.07121967888018899
2.424,-0.025024846992360395
2.428,-0.018985668030993674
2.432,-0.05300622895463408
2.436,-0.013993564727240955
2.44,-0.04247872424552889
2.444,-0.02438104897474114
2.448,-0.05124846554967906
2.452,-0.02740190573854447
2.456,-0.06529944473376739
2.46,-0.03382403623386264
2.464,-0.05530342864002556
2.468,-0.04856851293186968
2.472,-0.03315801367202906
2.476,-0.0421700691146884
2.48,-0.046940582243476844
2.484,-0.030723152942155725
2.488,-0.029037149816450183
2.492,-0.0726208520116058
2.496,-0.033558169923830705
2.5,-0.031130305100988076
2.504,-0.059394919598193596
2.508,-0.0364516675289631
2.512,-0.07045646631847441
2.516,-0.014986406898390068
2.52,-0.048324053668593964
2.524,-0.04493725593873791
2.528,-0.019210310241214706
2.532,-0.04580210123302734
2.536,-0.03075570044687006
2.54,-0.06346469899800461
2.544,-0.05369210141903486
2.548,-0.06992355524621449
2.552,-0.04601260883084056
2.556,-0.02099983734088636
2.56,-0.036917149104721395
2.564,-0.023469680021870703
2.568,-0.061442474880117975
2.572,-0.05834314350905433
2.576,-0.049746935367820544
2.58,-0.028739308063779594
2.584,-0.032814124081349885
2.588,-0.039997662074932994
2.592,-0.026985744566997334
2.596,-0.042210039493334635
2.6,-0.039353604466710754
2.604,-0.01256478530329522
2.608,-0.050122563261940214
2.612,-0.0344766327599045
2.616,-0.00562180264641611
2.62,-0.03555044379783469
2.624,-0.023182721712177404
2.628,-0.04917011359214459
2.632,0.0023737905955193844
2.636,-0.08146685220831806
2.64,-0.058875770373041605
2.644,-0.05697882495788938
2.648,-0.0032160142529822355
2.652,-0.02827015551104335
2.656,-0.04027158146795877
2.66,-0.06036305464382567
2.664,-0.02714578099069313
2.668,-0.03184578364933439
2.672,-0.0476815972338702
2.676,-0.063346175655131
2.68,-0.05526190508390471
2.684,-0.028627328540980695
2.688,-0.02636193958624394
2.692,-0.030803613294315267
2.696,-0.03498029765184529
2.7,-0.0670032473201288
2.704,-0.030330842031175864
2.708,-0.05163252744171095
2.712,-0.029819485111943652
2.716,-0.021025612986389327
2.72,-0.043511392524017756
2.724,-0.050124488389125796
2.728,-0.009456007811160468
2.732,-0.021955423556220998
2.736,-0.04138502183612125
2.74,-0.08831800385344224
2.744,-0.02895141399164994
2.748,-0.015041441225442912
2.7520000000000002,-0.004846466840985237
2.7560000000000002,-0.040486315390976885
2.7600000000000002,-0.03943941478052801
2.7640000000000002,-0.03508477683437094
2.7680000000000002,-0.00911424445895885
2.7720000000000002,-0.04901130077182895
2.7760000000000002,-0.02741698212083239
2.7800000000000002,-0.04331510821903416
2.7840000000000003,-0.019068314919601852
2.7880000000000003,-0.05517036473153978
2.7920000000000003,-0.016189197052736463
2.7960000000000003,-0.033279438254922654
2.8000000000000003,-0.027459759147133486
2.8040000000000003,-0.012094821077008211
2.8080000000000003,0.0006370070064695768
2.8120000000000003,-0.05580682992235812
2.816,-0.00142231166858511
2.82,-0.009955137760230864
2.824,-0.026635487814853354
2.828,0.007716375050321935
2.832,-0.016211175257775056
2.836,0.006265366382093126
2.84,-0.031077003624784
2.844,-0.036172125765596294
2.848,0.006040188273096856
2.852,0.02521853308124512
2.856,-0.0050039144107071176
2.86,0.0005325803045507539
2.864,-0.026379387068582696
2.868,-0.04301391629936522
2.872,-0.0206379528810558
2.876,0.014280905276994705
2.88,-0.05254046489432872
2.884,-0.02484259493629047
2.888,-0.05283059036349537
2.892,-0.011977136281820882
2.896,0.003740606789631753
2.9,-0.03819974030715078
2.904,-0.021132830804738163
2.908,0.013970931792353668
2.912,-0.013911485489134925
2.916,-0.03652440313375448
2.92,-0.037661178043408405
2.924,-0.05122463814642752
2.928,0.004939234311416008
2.932,-0.02504334456713832
2.936,0.011299154604154125
2.94,0.008033239291399678
2.944,-0.0221001767672111
2.948,-0.019050288599501558
2.952,0.007490426277735768
2.956,-0.004684194086320191
2.96,-0.0019061207492622276
2.964,-0.0397939799461346
2.968,0.011513077491978723
2.972,-0.02353622723010041
2.976,-0.05100793195851791
2.98,-0.017544089990040295
2.984,0.0036469842514423945
2.988,0.037562669957564
2.992,-0.011422513214453492
2.996,-0.030145688111382286
3.0,0.03934185934022579
3.004,0.0005201407927919281
3.008,-0.007403853263210301
3.012,-0.023026407632906018
3.016,-0.020478493860808918
3.02,0.03130703129113981
3.024,0.000678647981727014
3.028,0.0041331566194058485
3.032,0.02157464859693684
3.036,0.09341232694953841
3.04,0.10057426729235108
3.044,0.201884624028572
3.048,0.30245423654840015
3.052,0.4392538090907157
3.056,0.5743236782352633
3.06,0.7643248495525514
3.064,0.9202538093669058
3.068,0.9770762811276871
3.072,0.9851971724872362
3.076,0.9335248853223391
3.08,0.8583232657642503
3.084,0.7039574213055715
3.088,0.5470952100691872
3.092,0.39708384943212255
3.096,0.23868433428048602
3.1,0.1858214616041184
3.104,0.10694875519497125
3.108,0.05772083547122713
3.112,0.038853850508265494
3.116,0.03945886102789481
3.12,0.015600424687934654
3.124,-0.005200553580071911
3.128,0.0341994258443936
3.132,0.002086590163380961
3.136,-0.0035443979861976664
3.14,-0.019936178571485694
3.144,0.011844941925498176
3.148,-0.008869487264452235
3.152,0.0021010573427159406
3.156,0.021870172466484192
3.16,0.013949960863403882
3.164,0.03400961040121438
3.168,0.02018499020852603
3.172,0.006401748636734962
3.176,0.008282020699191702
3.18,0.005123991045538061
3.184,0.028593240469439826
3.188,0.016488409386530945
3.192,0.008232835249234356
3.196,0.033740736476739294
3.2,0.01915786642048094
3.204,0.00831012614273464
3.208,-0.012239639301957404
3.212,0.027143980043087608
3.216,0.023553686225709903
3.22,0.02018981677633982
3.224,0.010864231604822387
3.228,0.0032568567842183906
3.232,0.015772255601187477
3.236,0.025312984547626094
3.24,0.018504271274413703
3.244,0.018542434266417062
3.248,0.01244705676166258
3.2520000000000002,0.028961069406549616
3.2560000000000002,0.027226369010802796
3.2600000000000002,0.00787494619868992
3.2640000000000002,0.03849620740421595
3.2680000000000002,0.0394842006202534
3.2720000000000002,0.04029349535175383
3.2760000000000002,0.021771529740432085
3.2800000000000002,0.0208624133791486
3.2840000000000003,0.0019217090019339293
3.2880000000000003,0.04055609104303075
3.2920000000000003,-0.016896963454128958
3.2960000000000003,0.018353945628109023
3.3000000000000003,0.01972875090136633
3.3040000000000003,0.04400054080151593
3.3080000000000003,0.027212661766350472
3.3120000000000003,0.008282428126942364
3.3160000000000003,-0.000618508574934274
3.3200000000000003,0.013677196055729403
3.3240000000000003,0.03073317927300985
3.3280000000000003,0.030041087523272097
3.332,0.025324802363097663
3.336,0.015925889391008106
3.34,0.02574297611231732
3.344,0.0502319047335371
3.348,0.008597050503830694
3.352,0.03160535449082986
3.356,0.06362861337141483
3.36,0.04266638607523029
3.364,0.02278152566840394
3.368,0.04543790104202083
3.372,0.017493985777717918
3.376,0.03298919382642089
3.38,0.06424045440215984
3.384,0.07135170202065967
3.388,-0.00039668552053671174
3.392,0.04808185839171688
3.396,0.07335502172512517
3.4,0.02377588507403377
3.404,0.04015998670836994
3.408,0.06542008757780343
3.412,0.02571753603827502
3.416,0.0448986647009532
3.42,0.03496181544716257
3.424,-0.002076111484298905
3.428,0.04363642018998395
3.432,0.033311841600759534
3.436,0.05583456416363613
3.44,0.07941481923842209
3.444,0.05149745912117011
3.448,0.030741634479015026
3.452,0.04735993368092832
3.456,0.042657239702401165
3.46,0.059343251451257406
3.464,0.010367252076503602
3.468,0.016073128296585883
3.472,-0.0012500126461229971
3.476,0.052046561100873426
3.48,0.039773224166336295
3.484,0.027596325335997395
3.488,0.026137090228154157
3.492,0.029438355342568445
3.496,0.022563204392278248
3.5,0.034925996605241844
3.504,0.03170137803961428
3.508,0.06961398417370482
3.512,0.048506574824668844
3.516,0.025893013713973602
3.52,0.030805871960806405
3.524,0.06667960695474086
3.528,0.05196361883197971
3.532,0.04903004187975155
3.536,0.05774767578761324
3.54,0.07526237727997774
3.544,0.01939610304917742
3.548,0.02902836455649558
3.552,0.009325805961312009
3.556,0.054229126741476404
3.56,0.03694539815342925
3.564,0.03127194092857793
3.568,0.029648507398239033
3.572,0.058901245681623825
3.576,0.042410443670632576
3.58,0.03481642153920577
3.584,0.07070577331566294
3.588,0.024845661602376397
3.592,0.02064494742281438
3.596,0.09798768889507714
3.6,0.038899225977185425
3.604,0.035540332926781965
3.608,0.03201405698853606
3.612,0.04397406726763387
3.616,0.06251313611277792
3.62,0.062070583753552094
3.624,0.05802231150804808
3.628,0.04170569998137338
3.632,0.017609609589088273
3.636,0.05320027982452466
3.64,0.07804391354202486
3.644,0.06917707036807347
3.648,0.04454657332542793
3.652,0.06407943553208616
3.656,0.0404324849254692
3.66,0.047149693332779075
3.664,0.023672366867570505
3.668,0.0421547899365995
3.672,0.051375008956239095
3.676,0.045279868560288455
3.68,0.06415363487943666
3.684,0.08651816348004615
3.688,0.07536438358282613
3.692,0.042916159039684286
3.696,0.034471765312682645
3.7,0.03611906712575649
3.704,0.029689732862783275
3.708,0.0499960445738624
3.712,0.057804823020971646
3.716,0.05310651527527326
3.72,0.05337859974965664
3.724,0.05272607257436494
3.728,0.04697404654994731
3.732,0.03481765081443654
3.736,0.08420392416773997
3.74,0.07070445062348288
3.744,0.03162808926252781
3.748,0.03172433866716329
3.7520000000000002,0.038136299640712884
3.7560000000000002,0.050551387266130204
3.7600000000000002,0.07509740830362548
3.7640000000000002,0.07023566238177507
3.7680000000000002,0.07131254067270172
3.7720000000000002,0.07172958776685583
3.7760000000000002,0.07211288151775297
3.7800000000000002,0.06472712005238754
3.7840000000000003,0.059088455626234646
3.7880000000000003,0.04761891393276787
3.7920000000000003,0.015122810330917592
3.7960000000000003,0.04740846817203042
3.8000000000000003,0.08602376404056722
3.8040000000000003,0.039172742517514084
3.8080000000000003,0.03744262462470602
3.8120000000000003,0.07028578813925396
3.8160000000000003,0.05152752514615105
3.8200000000000003,0.040288086016159866
3.8240000000000003,0.08101309470972816
3.8280000000000003,0.062310205088179416
3.8320000000000003,0.064942476277099
3.8360000000000003,0.03845981745044928
3.84,0.059649362724437154
3.844,0.05719184760041794
3.848,0.06515411314476476
3.852,0.07254433133432399
3.856,0.07203180214451652
3.86,0.052880781280593404
3.864,0.06326312669399684
3.868,0.026697906198529627
3.872,0.06292899542205749
3.876,0.06500531004871067
3.88,0.04659990921696206
3.884,0.04563354436904728
3.888,0.07353873094422805
3.892,0.07576315340680759
3.896,0.15021814485541554
3.9,0.21754016671958523
3.904,0.29099301946217987
3.908,0.43987694032275426
3.912,0.6129228842400998
3.916,0.773339960232588
3.92,0.9177121683424136
3.924,0.9996364134031498
3.928,1.0404165174581599
3.932,1.014182637673627
3.936,0.9441045315780074
3.94,0.8426476673212286
3.944,0.6647090746458337
3.948,0.5112048889034538
3.952,0.3694279834259853
3.956,0.20263906887384148
3.96,0.15419239597685847
3.964,0.09951451547249796
3.968,0.10314182992700582
3.972,0.09529620951156101
3.976,0.039711850840169496
3.98,0.04965988250714361
3.984,0.058149806201052257
3.988,0.03637826037391312
3.992,0.03314879906859982
3.996,0.03190850899011899
4.0,0.0629510248344646
4.0040000000000004,0.026884096429496115
4.008,0.06758917557308075
4.0120000000000005,0.04643492140089455
4.016,0.059543713155111144
4.0200000000000005,0.07522064511685427
4.024,0.030747854933851862
4.0280000000000005,0.02759629444821645
4.032,0.05226499586947596
4.0360000000000005,0.02289496444311958
4.04,0.028721681899481714
4.0440000000000005,0.04084417018005038
4.048,0.046039324794753825
4.0520000000000005,0.017820268405872475
4.056,0.034827895017521454
4.0600000000000005,0.053898201871006
4.064,0.06888670210433183
4.0680000000000005,0.0026134351013416476
4.072,0.0676473014369893
4.0760000000000005,0.05893866990374477
4.08,0.01945047312371582
4.0840000000000005,0.01153217587084893
4.088,0.04895553533372543
4.0920000000000005,0.0320166329796964
4.096,0.042852525417362265
4.1,0.05705371945866783
4.104,0.03222060836615084
4.108,0.04262042535122088
4.112,0.04859867682516954
4.116,0.056585444073437796
4.12,0.07370972206849735
4.124,0.07223076106773962
4.128,0.04287776118887034
4.132,0.03309881670883324
4.136,0.08479806891227454
4.14,0.050011923283033805
4.144,0.0454893435159454
4.148,0.014779276329396043
4.152,0.05191847831811751
4.156,0.02066707685734937
4.16,0.026730192482207916
4.164,0.008981432905459448
4.168,0.02493825555329772
4.172,0.03620628021445006
4.176,0.004814751621607129
4.18,0.0165611663201197
4.184,0.032516158677693204
4.188,0.00863260084355183
4.192,0.00853812053879506
4.196,0.016593238208980603
4.2,0.004830727571340017
4.204,0.04474700370531584
4.208,0.012431487135726713
4.212,0.04719942517582235
4.216,0.04997860881249772
4.22,0.00739455409071306
4.224,0.03172815867562647
4.228,0.021057030585545575
4.232,0.0076156117866282465
4.236,0.02326228272219337
4.24,0.02478915067347584
4.244,0.04342074338206816
4.248,0.049352114589850234
4.252,0.006660807287091994
4.256,0.020150379475911414
4.26,0.038468340409909325
4.264,0.05102705706677555
4.268,-0.021477939907078327
4.272,0.05234821341722523
4.276,0.023157000703419656
4.28,0.05671540188574453
4.284,0.01734743823321961
4.288,0.008869216418348133
4.292,0.02598063711489145
4.296,0.048055380751276085
4.3,0.02497469918976663
4.304,-0.023038979954698113
4.308,0.03728765486731199
4.312,-0.008851265170864549
4.316,0.0033732899060750464
4.32,-0.0006542259871442566
4.324,-0.014528950994522585
4.328,-0.003220289203854039
4.332,0.0016970411075485393
4.336,0.008813875426441192
4.34,0.019596491204167565
4.344,0.013603599019020848
4.348,-0.009704563384829303
4.352,0.015888612411951258
4.356,0.038594706427032374
4.36,0.037720433201654566
4.364,0.021064216328050063
4.368,0.030372601150625456
4.372,0.03544249836137475
4.376,0.04444160262463114
4.38,0.050747618641041214
4.384,0.010021944663545293
4.388,0.010602134188700946
4.392,0.04509792492588132
4.396,0.046468955071264015
4.4,0.04566521747947942
4.404,-0.032415578821996756
4.408,0.009664338361184657
4.412,-0.051450619196134195
4.416,0.027859023691621326
4.42,0.013972326600544972
4.424,0.013502425803859998
4.428,0.009302907042610288
4.432,0.037721366644526334
4.436,0.005388139491121224
4.44,0.0315081183935343
4.444,0.021512610292033624
4.448,0.017171063519148655
4.452,0.01888006344121141
4.456,0.011435027660223597
4.46,-0.01306150279040248
4.464,0.02272890338674483
4.468,0.0222620055039656
4.472,0.004708127324706744
4.476,0.02178987017587456
4.48,0.024743607336436577
4.484,-0.019276687999793582
4.488,0.0030996709288365794
4.492,-0.00333454172882121
4.496,-0.012985102830729067
4.5,0.011151703752450868
4.5040000000000004,-0.012571143505669527
4.508,-0.004808537496102534
4.5120000000000005,0.0083735144384353
4.516,0.010048732420262031
4.5200000000000005,0.009068636682958233
4.524,0.046901678648727727
4.5280000000000005,-0.008264581338756974
4.532,0.006398409561732869
4.5360000000000005,-0.02313676576521028
4.54,0.01019259138224855
4.5440000000000005,0.023219868580995322
4.548,0.024013309405329395
4.5520000000000005,-0.013394796716782283
4.556,-0.006682471969535747
4.5600000000000005,0.023740028783441277
4.564,-0.003789607774663353
4.5680000000000005,0.016836994386687204
4.572,-0.022199089846095123
4.5760000000000005,0.024502780869877068
4.58,0.01696660365724152
4.5840000000000005,0.005289057448851321
4.588,-0.02037579567899978
4.5920000000000005,-0.008012208508325461
4.596,-0.002205369833199608
4.6000000000000005,-0.00037457797757023924
4.604,-0.008150239016308038
4.6080000000000005,-0.010834841823347473
4.612,-0.0030279547772802977
4.616,0.02062362389717203
4.62,-0.047855203985546546
4.624,-0.03554451108320098
4.628,-0.039413445367413494
4.632,-0.022663864388138676
4.636,-0.04413723497743172
4.64,0.0013232870752830795
4.644,-0.00823110814940675
4.648,-0.015626772612128706
4.652,-0.02458707467134666
4.656,-0.008223287448211568
4.66,-0.008198897906952453
4.664,-0.005561271544924916
4.668,-0.027148631275876946
4.672,1.6991805516827774e-05
4.676,-0.04274038082243945
4.68,0.011220279062771857
4.684,-0.07570104232626769
4.688,-0.026436865451125408
4.692,-0.03900587090787081
4.696,0.0004396898650480714
4.7,-0.04545230123761454
4.704,0.020294871360393745
4.708,-0.04742452449906863
4.712,0.023649826164132238
4.716,-0.00833416634536802
4.72,-0.017020768366018606
4.724,-0.009163622282611182
4.728,0.02598524164630713
4.732,0.00064297034119375
4.736,-0.059793438688208134
4.74,0.013877234668466524
4.744,0.005552535838898364
4.748,-0.010335896503184724
4.752,0.07443177728481333
4.756,0.09520168497058262
4.76,0.21217405848210608
4.764,0.33348347040444154
4.768,0.46268608684537094
4.772,0.6487080862327091
4.776,0.7673898809338855
4.78,0.9104626729768799
4.784,0.9588098375931302
4.788,0.9607051509444461
4.792,0.9299402422176617
4.796,0.7679090345843064
4.8,0.5884623793226614
4.804,0.4477832280578797
4.808,0.29037108275549994
4.812,0.1896470444282086
4.816,0.10689141181636513
4.82,0.048118979923486654
4.824,0.012868799809436398
4.828,-0.019727127825662317
4.832,-0.010447058665188278
4.836,-0.0035578057222602627
4.84,-0.03965029247397613
4.844,-0.029653413841383074
4.848,-0.027954365678798183
4.852,-0.004550834961686439
4.856,-0.008412164539006145
4.86,-0.04494284140046563
4.864,-0.02922682495177216
4.868,-0.06088090481046486
4.872,-0.05063558322721881
4.876,-0.03134748918917266
4.88,-0.019369163661018596
4.884,-0.01319777391651416
4.888,-0.03881719418809347
4.892,-0.059973390632304155
4.896,-0.025287790869841432
4.9,-0.036995090429966106
4.904,-0.025361512782951144
4.908,-0.03094234001588214
4.912,-0.020132017007134517
4.916,-0.02165338760691673
4.92,-0.018170993598007723
4.924,-0.04452074321802256
4.928,-0.015719760171372794
4.932,-0.045980006245010405
4.936,-0.034507911338540816
4.94,0.0007204154894496842
4.944,-0.02963760109439051
4.948,-0.060375983321509626
4.952,-0.007521955934544879
4.956,-0.017603261670013606
4.96,-0.015067638305503502
4.964,-0.03420235630131417
4.968,-0.03149679383035873
4.972,-0.04333748762524855
4.976,-0.05293753171433808
4.98,-0.008597777734597373
4.984,-0.04682098943925124
4.988,-0.04932112186950456
4.992,-0.04882771217369695
4.996,-0.0029588473008859764
5.0,-0.02288812968063093
5.0040000000000004,-0.0480514497624149
5.008,-0.04184520899271116
5.0120000000000005,-0.030960487388039082
5.016,-0.023834058360900367
5.0200000000000005,-0.07384427246321165
5.024,-0.023786989573581052
5.0280000000000005,-0.0464485064998145
5.032,-0.05603109970700702
5.0360000000000005,-0.05033623548269934
5.04,-0.026907951183719237
5.0440000000000005,-0.007791497076309391
5.048,-0.040212440315785185
5.0520000000000005,-0.03224047989133312
5.056,-0.05986377991965871
5.0600000000000005,-0.03395813806880303
5.064,-0.02753081333595704
5.0680000000000005,-0.0739400788595174
5.072,-0.05463032070732069
5.0760000000000005,-0.028745756924514608
5.08,-0.07992628587952491
5.0840000000000005,-0.05240974120572097
5.088,-0.03309816913199882
5.0920000000000005,-0.07910060792781809
5.096,-0.05339661738448939
5.1000000000000005,-0.04453781549736325
5.104,-0.027994596428985826
5.1080000000000005,-0.07154194050887208
5.112,-0.023938582649878498
5.1160000000000005,-0.040173695837278936
5.12,-0.022505498047330437
5.124,-0.023330037672505743
5.128,-0.03992745234654226
5.132,-0.03717390822987646
5.136,-0.08182020196719954
5.14,-0.07417319855905945
5.144,-0.06741253924917891
5.148,-0.05439913279725489
5.152,-0.028903554626353696
5.156,-0.0833627417647047
5.16,-0.05421642536893755
5.164,-0.07436144592926691
5.168,-0.0792071184247544
5.172,-0.01862786587024233
5.176,-0.04630498053197353
5.18,-0.01567888730635502
5.184,-0.024802451140746116
5.188,-0.06701248121587942
5.192,-0.08577451488394261
5.196,-0.007372057970632687
5.2,-0.056963871140543895
5.204,-0.07184060136194553
5.208,-0.03520910776763609
5.212,-0.046382128044604565
5.216,-0.06261611756861912
5.22,-0.05617926526439768
5.224,-0.04610369424587408
5.228,-0.04791710123014604
5.232,-0.03434848548825713
5.236,-0.05658716281387147
5.24,-0.056436649585499786
5.244,-0.037613324882533196
5.248,-0.043415955941092245
5.252,-0.02783521568044445
5.256,-0.05476061081751794
5.26,-0.051767802892236786
5.264,-0.07295627906633435
5.268,-0.01988405363038577
5.272,-0.07777207698936214
5.276,-0.045880342669280524
5.28,-0.06778220615740303
5.284,-0.04321350709099343
5.288,-0.03508837430777825
5.292,-0.08277272838394564
5.296,-0.0542135649044391
5.3,-0.08513319542861791
5.304,-0.021914286168536114
5.308,-0.058860217538902554
5.312,-0.08152196384850907
5.316,-0.06402055595331346
5.32,-0.023742614420768113
5.324,-0.020201655679350488
5.328,-0.024520729626451
5.332,-0.06559688364465466
5.336,-0.05292879599905674
5.34,-0.017158168120803584
5.344,-0.06445141181607082
5.348,-0.056476787397748494
5.352,-0.06881951495055216
5.356,-0.07298020319330811
5.36,-0.02552715703124912
5.364,-0.036987384778078156
5.368,-0.040554449773158245
5.372,-0.03789646140161961
5.376,-0.02900249826173624
5.38,-0.01915734357745936
5.384,-0.049440949016309695
5.388,-0.05604287737055121
5.392,-0.06962799689397142
5.396,-0.027427749011465736
5.4,-0.059291995577887134
5.404,-0.07880032857434824
5.408,-0.0541962722734421
5.412,-0.04824230556246589
5.416,-0.03198442293876957
5.42,-0.028461733094782733
5.424,-0.06305539959123506
5.428,-0.06433511909122866
5.432,-0.05478558536903159
5.436,-0.07234004181717979
5.44,-0.05019098513746513
5.444,-0.03865532903128296
5.448,-0.04689962288840285
5.452,-0.07990042811148515
5.456,-0.07134745915234539
5.46,-0.02165765429029195
5.464,-0.06750775724963816
5.468,-0.03233380085186959
5.472,-0.03432324569986457
5.476,-0.05325967285139573
5.48,-0.06661080560922907
5.484,-0.042312642428645963
5.488,-0.06408999391958604
5.492,-0.049726627298529474
5.496,-0.04393007544412995
5.5,-0.06022522078586918
5.5040000000000004,-0.05025932535393341
5.508,-0.05172035186400409
5.5120000000000005,-0.07008934010722384
5.516,-0.04901543419816792
5.5200000000000005,-0.05776998752803328
5.524,-0.08132673636720847
5.5280000000000005,-0.05141294058472509
5.532,-0.05012914729897937
5.5360000000000005,-0.056376983950748874
5.54,-0.08531862595631427
5.5440000000000005,-0.02836629638536996
5.548,-0.030016220464216807
5.5520000000000005,-0.030474400635942894
5.556,-0.03678144165382781
5.5600000000000005,-0.06820582673605363
5.564,-0.040398134321041924
5.5680000000000005,-0.061190266094973814
5.572,0.0013407726433612085
5.5760000000000005,-0.052566669263649016
5.58,-0.02847364435683851
5.5840000000000005,-0.07234853755152751
5.588,-0.06386872678946155
5.5920000000000005,-0.048829755801393045
5.596,-0.019400741222757294
5.6000000000000005,-0.012984206300780132
5.604,8.663756498888172e-05
5.6080000000000005,-0.010209774114574036
5.612,0.1030645311802946
5.6160000000000005,0.1429510529667324
5.62,0.30589698825625145
5.6240000000000006,0.4517457198583462
5.628,0.5897580194441349
5.632,0.750505379465429
5.636,0.837008371447518
5.64,0.9953591796967033
5.644,0.9634425579105133
5.648,0.9251685433777213
5.652,0.7758374330264519
5.656,0.6427337462221145
5.66,0.4597949270347823
5.664,0.32888910737549504
5.668,0.2093700717839095
5.672,0.12052174470298053
5.676,0.07921159746302286
5.68,0.020746837254019514
5.684,-0.007074671175359638
5.688,-0.02333282678565697
5.692,0.010276389000402106
5.696,-0.044000849466663286
5.7,-0.009527790633304896
5.704,-0.0726711673308041
5.708,-0.05086051136327097
5.712,-0.024840677544438215
5.716,-0.03597691745675802
5.72,0.027699998483493915
5.724,0.019457668209178165
5.728,-0.0621957272814683
5.732,-0.05290856718373923
5.736,-0.03400978280069133
5.74,0.003961498588979092
5.744,-0.007780695325210165
5.748,-0.023638990989982782
5.752,-0.058142111688144656
5.756,-0.04640519972910179
5.76,-0.0828579993810653
5.764,-0.05954373438729453
5.768,-0.0199336740352445
5.772,-0.012324090905769147
5.776,-0.053837259733322713
5.78,-0.02524485184198979
5.784,0.005473681648768599
5.788,-0.023430741349387982
5.792,-0.03246857903423385
5.796,-0.013746709163800084
5.8,-0.01507324550733339
5.804,-0.023653966554223443
5.808,-0.035615280122603205
5.812,-0.03303342836202271
5.816,-0.022376891036508147
5.82,-0.03480536978093883
5.824,0.003208388852213629
5.828,-0.005227576724469454
5.832,-0.0009649805953523619
5.836,0.018205598117760707
5.84,0.009606142197295612
5.844,0.0067591607801119995
5.848,-0.013812157230597649
5.852,-0.0247182280116851
5.856,0.02553273476978671
5.86,-0.03358471371512771
5.864,-0.03212199442895243
5.868,-0.036740902955747
5.872,-0.014661166584860684
5.876,-0.010221340016045143
5.88,0.0023928148935721226
5.884,-0.022318007433227288
5.888,-0.0521146559975561
5.892,-0.010672872999103184
5.896,0.0028257873169445953
5.9,-0.015626986850616576
5.904,-0.01853970141541268
5.908,-0.004226159094692917
5.912,0.01357065395198499
5.916,-0.016009541773737666
5.92,-0.04269446746689062
5.924,-0.025183005698790936
5.928,-0.016814100758995625
5.932,-0.04912041750454591
5.936,0.0026834054507565343
5.94,-0.027657671941424322
5.944,-0.0017502343983455144
5.948,-0.007618188280939872
5.952,-0.017333625074556377
5.956,0.02185041921816596
5.96,-0.02153855018474573
5.964,-0.02335759629874739
5.968,-0.003645636912489502
5.972,0.007688118662934241
5.976,-0.008734837945502843
5.98,-0.027934167268779606
5.984,0.005945466489575595
5.988,0.004602848658440222
5.992,0.03443203999238245
5.996,-0.011069718600800478
6.0,-0.0019783467445216793
6.0040000000000004,-0.01717724544904095
6.008,-0.03518480199821459
6.0120000000000005,-0.003513962012856285
6.016,0.012408062353782742
6.0200000000000005,-0.0244561161046235
6.024,-0.01727724942744637
6.0280000000000005,-0.02687529429230422
6.032,0.023865502813258013
6.0360000000000005,-0.015201149189846962
6.04,0.00946936029352931
6.0440000000000005,-0.019009327586130692
6.048,0.00020496273875433109
6.0520000000000005,-0.0133971396611136
6.056,-0.04742703633678525
6.0600000000000005,0.0014949039446225275
6.064,0.010907688232576254
6.0680000000000005,-0.04090920263359047
6.072,-0.0023079078711402733
6.0760000000000005,-0.007054534832309091
6.08,-0.01955451645371413
6.0840000000000005,-0.0026017292525158343
6.088,-0.03595473232099172
6.0920000000000005,0.00826465816242898
6.096,0.02738673330836631
6.1000000000000005,-0.021153837808769626
6.104,0.0031843222306787043
6.1080000000000005,0.0334122252448266
6.112,0.0077660039371185196
6.1160000000000005,-0.004641352912856155
6.12,-0.012069498752784992
6.1240000000000006,0.010110649014151728
6.128,0.004311046944796858
6.132000000000001,0.020006061376642632
6.136,-0.02262128480835166
6.140000000000001,0.02973477020922051
6.144,0.0005310002663128279
6.148,0.021862665535477575
6.152,-0.005030528705683062
6.156,-0.01613416751476071
6.16,-0.0011087067841771877
6.164,-0.008450200399717528
6.168,0.003548569763334862
6.172,0.024403846265136357
6.176,0.03342486200468596
6.18,0.0163236877449508
6.184,0.0018431674656761068
6.188,0.004027717923826089
6.192,0.025298659044462782
6.196,0.0365780459621268
6.2,0.007789533244525675
6.204,0.012137612642948527
6.208,1.1654792507408487e-05
6.212,0.0195753997884266
6.216,0.034969792466428826
6.22,-0.04188902989693108
6.224,0.021726728414138634
6.228,0.005993887960170049
6.232,-0.02916048609133682
6.236,0.02405854664324195
6.24,0.01638211356996965
6.244,0.025944914530112495
6.248,-0.008378057916442076
6.252,0.06206841482457101
6.256,0.02192064516542991
6.26,0.013225976168927556
6.264,0.05095041981517224
6.268,0.03389014165158668
6.272,0.037878241699535485
6.276,0.04485992270942668
6.28,-0.01946325683760697
6.284,0.055727115342932274
6.288,0.01576448855112006
6.292,0.028789122448328056
6.296,0.041902837498407404
6.3,0.009565818971680327
6.304,0.03053385421870671
6.308,0.03979525953764143
6.312,0.02406146198446133
6.316,0.035149929274683696
6.32,-0.006504405900170613
6.324,0.002127362617698511
6.328,0.0033191420121546876
6.332,0.03409649376417744
6.336,0.10188217511269497
6.34,0.03262888621825177
6.344,0.02476100051874699
6.348,0.026772617690602737
6.352,0.0480705242387716
6.356,0.043023185198231124
6.36,0.006148021973076272
6.364,0.04976021118524563
6.368,0.029275417899983912
6.372,0.04646664596591035
6.376,-0.009563483993077129
6.38,-0.0003498361414198785
6.384,0.04300737629682466
6.388,-0.0046194330087394805
6.392,0.03951136099506833
6.396,0.038798419001393344
6.4,0.0352665650061695
6.404,0.03977805677675444
6.408,0.03829092584236877
6.412,0.042239250536058225
6.416,0.02547403665451164
6.42,0.03346837150899355
6.424,0.09279918420408603
6.428,0.05725808738086138
6.432,0.04708650142175336
6.436,0.04306277400460553
6.44,0.021183708145994788
6.444,0.041168227166975775
6.448,0.03349906955749433
6.452,0.061164993831827046
6.456,0.031787564634457116
6.46,0.018137841165393187
6.464,0.08203922999039831
6.468,0.15406357466242426
6.472,0.26197012697471367
6.476,0.3364794537949192
6.48,0.4297442219252301
6.484,0.6002427743537543
6.488,0.7458633024049808
6.492,0.9026874475314277
6.496,0.9863753504249548
6.5,1.0066269052394687
6.5040000000000004,1.0137213922205612
6.508,0.9113524937910775
6.5120000000000005,0.7629918109040156
6.516,0.6135813397161064
6.5200000000000005,0.49252285472798973
6.524,0.32136180758280014
6.5280000000000005,0.20878191448271158
6.532,0.1615159280655589
6.5360000000000005,0.06498073703597763
6.54,0.08554887226409884
6.5440000000000005,0.04018262196289717
6.548,0.031999270409194036
6.5520000000000005,0.04723207102811837
6.556,0.07717975945091003
6.5600000000000005,0.02843131825615996
6.564,0.062376256010532545
6.5680000000000005,0.05101314163469195
6.572,0.015818029665265926
6.5760000000000005,0.06215485984689241
6.58,0.02750200523532024
6.5840000000000005,0.014817027747096166
6.588,0.028583630188399635
6.5920000000000005,0.03005989969325724
6.596,0.05662847615965588
6.6000000000000005,0.030332474429544024
6.604,0.0750194590203305
6.6080000000000005,0.04975057523134459
6.612,0.031129113746390075
6.6160000000000005,0.02898129642300052
6.62,0.05039471024969753
6.6240000000000006,0.0054091559781821175
6.628,0.0026278129046212392
6.632000000000001,0.028624337529813408
6.636,0.059068204531922824
6.640000000000001,0.05020951328606787
6.644,0.04720905978714188
6.648000000000001,0.042640921615820754
6.652,0.0035094520764076265
6.656000000000001,0.04069561476434139
6.66,0.011832680088940686
6.664,0.06416716246659962
6.668,0.04742040375112275
6.672,0.04592345306519944
6.676,0.05581966690329826
6.68,0.05441756593827309
6.684,0.052725714984375435
6.688,0.0551478798123621
6.692,0.03651675432346439
6.696,0.021695526187903873
6.7,0.05533525852880879
6.704,0.07753115583338537
6.708,0.06893070205024618
6.712,0.04450904374146811
6.716,0.06112520294912385
6.72,0.04016587346829516
6.724,0.056739741338705366
6.728,0.03697201787798398
6.732,0.05201299207368694
6.736,0.08932808665861651
6.74,0.06479350316231956
6.744,0.07938095173348352
6.748,0.03400215431142056
6.752,0.03580802053948072
6.756,0.04879356556731487
6.76,0.060771531118991744
6.764,0.045513816824291654
6.768,0.06999601681065794
6.772,0.03876036886709189
6.776,0.07701174364188325
6.78,0.06921065910429441
6.784,0.027558469189318553
6.788,0.0615614611488802
6.792,0.045446158702501356
6.796,0.07032264082557232
6.8,0.03921316235512293
6.804,0.05620068655759018
6.808,0.060903109368566175
6.812,-0.005082012353150853
6.816,0.012393675554598305
6.82,0.0525574867027343
6.824,0.04746804373150366
6.828,0.07030425877176348
6.832,0.05449913289413658
6.836,0.02454759688733035
6.84,0.056514178310171345
6.844,0.03491866599113851
6.848,0.045312172269560955
6.852,0.03969581881390534
6.856,0.05681765837819813
6.86,0.021374794499640554
6.864,0.027369309359570645
6.868,0.00524742664481314
6.872,0.09256739958586402
6.876,0.02966296309570514
6.88,0.03231252328473104
6.884,0.026436624319804907
6.888,0.036587968307614356
6.892,0.04064357020570642
6.896,0.0616410163163197
6.9,0.05280040144788515
6.904,0.0557754130627868
6.908,0.03731367929167581
6.912,0.04759109254065681
6.916,0.07332512011736349
6.92,0.048431717172167675
6.924,0.054913762377745146
6.928,0.00811206275283085
6.932,0.05894393440434166
6.936,0.053671261058265196
6.94,0.07416429162433827
6.944,-0.006747188984538091
6.948,0.04863908061094137
6.952,0.04551390033077474
6.956,0.049496312762107184
6.96,0.03507256177441517
6.964,0.05169504992879444
6.968,0.06138285841060548
6.972,0.04808352144494733
6.976,0.041171172641036195
6.98,0.04263346617631176
6.984,0.03897766100784736
6.988,0.0473810241601324
6.992,0.03206703346483866
6.996,0.006439583196250348
7.0,0.07320850166704261
7.0040000000000004,0.010768389796724266
7.008,0.04335728593532495
7.0120000000000005,0.019444316326427902
7.016,0.03962666769110421
7.0200000000000005,0.02586469575342967
7.024,0.0441168987045815
7.0280000000000005,0.027966496108163527
7.032,0.018657311514041906
7.0360000000000005,0.0505778504535291
7.04,0.07087784515312644
7.0440000000000005,0.05091571822281975
7.048,0.04596657697936572
7.0520000000000005,0.022520493033201885
7.056,0.041693170883937265
7.0600000000000005,0.0520719172776048
7.064,0.029901946341629647
7.0680000000000005,0.06070031314854657
7.072,0.04166976166721236
7.0760000000000005,0.049329730008474924
7.08,0.032090193284622225
7.0840000000000005,0.032006374278063056
7.088,0.045976446858453784
7.0920000000000005,0.049034330957666836
7.096,0.048037702230083364
7.1000000000000005,0.020504011639614236
7.104,0.02592310067847508
7.1080000000000005,0.03993155335766087
7.112,0.0029631457197124636
7.1160000000000005,0.060744199821085545
7.12,0.045921429516832375
7.1240000000000006,0.040143824075270694
7.128,0.02480337695412266
7.132000000000001,0.055228424604164536
7.136,0.0330935333458386
7.140000000000001,0.0762888365085237
7.144,0.04588692485533732
7.148000000000001,0.00793353036793509
7.152,0.052038715239574554
7.156000000000001,0.02666306554100182
7.16,0.026524331265667743
7.164000000000001,0.03183160403239637
7.168,0.03377088920257478
7.172,0.04113578994193902
7.176,0.051052832421663336
7.18,0.044597404247985015
7.184,0.02072803351046145
7.188,0.00789544053094442
7.192,0.01848552180498555
7.196,0.04152598665405061
7.2,0.05137460228326072
7.204,0.06970890061834928
7.208,0.00647291142070076
7.212,0.03468565334891398
7.216,0.028209630724051638
7.22,0.02443294486196252
7.224,0.034922644440510915
7.228,0.026885802681599957
7.232,0.026197054742747694
7.236,0.018274241294032392
7.24,0.03880570556247655
7.244,0.05167737928858224
7.248,0.06291670522978088
7.252,0.019405609577856038
7.256,0.008513064344818942
7.26,0.024017142366028945
7.264,0.012232657405396325
7.268,0.04918980407159109
7.272,0.011880859110754198
7.276,0.029415187812595858
7.28,0.0007229511568184153
7.284,0.020266256923337445
7.288,0.03076055107729856
7.292,0.057231835540505066
7.296,0.012607831450822093
7.3,0.033965127242717434
7.304,-0.014168384050125063
7.308,0.005679296867059265
7.312,0.019301794459037763
7.316,0.037706122126055286
7.32,0.07931331965251945
7.324,0.12341925161175062
7.328,0.14264649967141416
7.332,0.27898334287401005
7.336,0.3706232037394101
7.34,0.5793885580064604
7.344,0.7093550569357787
7.348,0.855015615273969
7.352,0.9604935327859618
7.356,1.0171755648549012
7.36,1.002432918377613
7.364,0.9069488307526944
7.368,0.8040836481187416
7.372,0.6369297747239845
7.376,0.48758332504548896
7.38,0.33041615062744617
7.384,0.23299414379121267
7.388,0.12308043594482537
7.392,0.1557968677484382
7.396,0.03762632575947499
7.4,0.02450758469779615
7.404,0.043004965176659485
7.408,0.043614919389270965
7.412,0.0007067893398456371
7.416,-0.01782038877217648
7.42,-0.013220123665230697
7.424,-0.005627753092419283
7.428,-0.0018863854755643058
7.432,0.010107032803084476
7.436,0.03358976282312701
7.44,0.03419250506416567
7.444,-2.8310315621064147e-05
7.448,0.02257797455512301
7.452,0.029020801479128736
7.456,0.03906093942346931
7.46,0.007388379516276743
7.464,-0.004699372052647569
7.468,0.024743090010332397
7.472,0.03964774510000467
7.476,-0.0015483188401539671
7.48,0.04750193671438076
7.484,0.042499477155195226
7.488,0.0024603930548828317
7.492,-0.02406296031253586
7.496,-0.005040996121883818
7.5,-0.0005575208155053097
7.5040000000000004,0.016703284808260395
7.508,-0.027751170169819952
7.5120000000000005,0.05386652799021478
7.516,0.05164428075344861
7.5200000000000005,-0.010051836957509813
7.524,-0.03323189404778769
7.5280000000000005,0.00019865959812906658
7.532,0.011647542838983123
7.5360000000000005,0.02967554645598649
7.54,0.01656679160253415
7.5440000000000005,-0.0021248547298741423
7.548,-0.03787287042772488
7.5520000000000005,0.011282824205763578
7.556,0.017510259357800123
7.5600000000000005,-0.005970577046660654
7.564,0.005312259447370417
7.5680000000000005,0.003464609506610787
7.572,-0.0058904872681594875
7.5760000000000005,-0.024563486208001424
7.58,0.004984274024592755
7.5840000000000005,-0.0306409105958314
7.588,0.025337158629404544
7.5920000000000005,-0.021085524094131905
7.596,0.006316742731022066
7.6000000000000005,-0.018564308323884008
7.604,0.0032110018970825213
7.6080000000000005,-0.009008462084244192
7.612,0.005446474126267918
7.6160000000000005,-0.021440654071970763
7.62,-0.03864920554376505
7.6240000000000006,-0.012083245466260994
7.628,-0.013905098094115767
7.632000000000001,-0.03737492897116685
7.636,-0.02151016676134802
7.640000000000001,-0.04159255523713469
7.644,-0.006245276345540518
7.648000000000001,-0.016428606857226715
7.652,-0.009068817345885438
7.656000000000001,0.04228005472372467
7.66,-0.007015085287611171
7.664000000000001,-0.003116590497677674
7.668,0.0015471411661705844
7.672000000000001,-0.014187027383012087
7.676,-0.023632807668462028
7.68,0.005343714960517408
7.684,0.00795967717959063
7.688,-0.07135961969500812
7.692,-0.016680155201311806
7.696,-0.020636674072523134
7.7,-0.025540118285114422
7.704,0.010181592618161187
7.708,-0.025755486062833958
7.712,0.0018064073496939
7.716,-0.026730116508253056
7.72,-0.02442568713221757
7.724,-0.0021018481026100454
7.728,-0.03183160845178699
7.732,-0.02070189874476757
7.736,-0.039927800733502807
7.74,-0.035961242085258985
7.744,-0.004204838537318676
7.748,-0.007346574767241062
7.752,-0.04230738034075851
7.756,-0.04349289419781348
7.76,0.0307147447245256
7.764,-0.03345326961289083
7.768,-0.03840663711846163
7.772,-0.011129788602584019
7.776,-0.037266463833206885
7.78,-0.029438263907816384
7.784,-0.0046574423485642065
7.788,-0.0029331866887102563
7.792,-0.027210599600607174
7.796,0.0031837649750507714
7.8,-0.026892797755762622
7.804,-0.029185850945127465
7.808,-0.024882008195951953
7.812,-0.03126272883961205
7.816,-0.014959211663381275
7.82,-0.02020692677381776
7.824,-0.041712779794047875
7.828,-0.022977243175961073
7.832,-0.03776781277131235
7.836,-0.0388433843719331
7.84,-0.030434031026401014
7.844,-0.007639026843080557
7.848,-0.022827610746714452
7.852,-0.0033476638233012265
7.856,0.002188781038718099
7.86,-0.030076719565978096
7.864,-0.04184035637155791
7.868,-0.045824304996176894
7.872,-0.024851573701636286
7.876,-0.01344251457331954
7.88,0.0005605727548198547
7.884,-0.05755879711480863
7.888,-0.013283172728189418
7.892,-0.01065116400916884
7.896,0.016347045195150015
7.9,-0.02894665369997111
7.904,-0.03363904501661056
7.908,-0.0636873380712827
7.912,-0.049179161359248456
7.916,-0.056002129157379565
7.92,-0.05442956056835421
7.924,-0.05251874286450117
7.928,-0.06549242177880565
7.932,-0.03698075690434615
7.936,-0.027702405566714397
7.94,-0.020490151228350018
7.944,-0.03791396662827762
7.948,-0.015163631962649783
7.952,-0.01525595941085325
7.956,-0.06720503733146514
7.96,-0.04259350242217563
7.964,-0.062396454244045524
7.968,-0.05727118762905832
7.972,-0.03428986096395727
7.976,-0.04075080907796923
7.98,-0.00924391135441623
7.984,0.0021639754893896038
7.988,-0.030639246725955787
7.992,-0.043130130386271
7.996,-0.04246958520946323
8.0,-0.04003685690546462
8.004,-0.028609803352013463
8.008000000000001,-0.05498774633970242
8.012,-0.02888352980073148
8.016,-0.04567657146061979
8.02,-0.019879897831064655
8.024000000000001,-0.014024980493986268
8.028,-0.006767096055259707
8.032,-0.044864347522160876
8.036,-0.06897153535070287
8.040000000000001,-0.07589676215046917
8.044,-0.04827067627466832
8.048,-0.07098617043170082
8.052,-0.07579290874321948
8.056000000000001,-0.050128753059678656
8.06,-0.06299790271456554
8.064,-0.029721776968704088
8.068,-0.004950627693703906
8.072000000000001,-0.04843388536386163
8.076,-0.037842112207501596
8.08,-0.07584312297369278
8.084,-0.040867524395011234
8.088000000000001,-0.05870408744558065
8.092,-0.06685740386210913
8.096,-0.08229224222758755
8.1,-0.013255135201555864
8.104000000000001,-0.07770155218179095
8.108,-0.06978585666903998
8.112,-0.04559595726141143
8.116,-0.040183551812462484
8.120000000000001,-0.04027181618399643
8.124,-0.04411480640594865
8.128,-0.06429377629084997
8.132,-0.03124666143316436
8.136000000000001,-0.042894242302324366
8.14,-0.07593365783582
8.144,-0.014995608346517954
8.148,-0.05398114863546752
8.152000000000001,-0.028198930029973795
8.156,-0.07605496932466707
8.16,-0.06998594654182973
8.164,-0.055596130349003826
8.168000000000001,-0.053160479205974456
8.172,-0.00895237660527613
8.176,-0.042118173096900004
8.18,0.028398463497141754
8.184000000000001,0.061589350145472004
8.188,0.177202503093755
8.192,0.28719302607374925
8.196,0.41592198068799874
8.2,0.6310179676262768
8.204,0.7406494665138625
8.208,0.8888382801649515
8.212,0.9127687795257663
8.216,0.9417842136906285
8.22,0.8824680625406113
8.224,0.7641974711653311
8.228,0.6020198207124179
8.232,0.43177805972533045
8.236,0.23919820826339
8.24,0.16899620535696888
8.244,0.07243417535782876
8.248,0.02502772843834443
8.252,0.009669592614523465
8.256,0.015317758227867781
8.26,-0.029748140184302822
8.264,-0.025594280354600193
8.268,-0.035853662577947254
8.272,-0.03497259274147721
8.276,-0.03814133318569139
8.28,-0.0553603738463119
8.284,-0.05668427086133028
8.288,-0.04359882187193205
8.292,-0.01424820799699137
8.296,-0.03459353212698894
8.3,-0.018046707490101996
8.304,-0.07616698432343241
8.308,-0.044944087102389424
8.312,-0.04226868042701341
8.316,-0.03982467749762134
8.32,-0.07772775657728873
8.324,-0.08712868296984111
8.328,-0.09273653019173776
8.332,-0.05822046588524707
8.336,-0.003319402729205799
8.34,-0.04584846030633699
8.344,-0.0744094865354188
8.348,-0.04337889111018437
8.352,-0.05617103245355109
8.356,-0.04668866991507071
8.36,-0.05911178980919857
8.364,-0.07593670110127429
8.368,-0.06062780242042903
8.372,-0.035662146553536646
8.376,-0.04380569240390228
8.38,-0.025391246071738097
8.384,-0.0711799090420078
8.388,-0.02870191597817737
8.392,-0.04836535091386183
8.396,-0.04563060578103691
8.4,-0.02445932283015882
8.404,-0.051913582180648975
8.408,-0.04409665487488849
8.412,-0.036296593892863514
8.416,-0.03602636458333965
8.42,-0.03259801178032992
8.424,-0.02293110246400379
8.428,-0.03804039254200687
8.432,-0.05731437716223132
8.436,0.0005756518940008282
8.44,-0.04887956064513699
8.444,-0.040575586517897076
8.448,-0.06293808766264378
8.452,-0.09152602686093811
8.456,-0.0633111060502349
8.46,-0.04633393376357399
8.464,-0.03688981297589911
8.468,-0.046823096371614505
8.472,-0.03136426963648134
8.476,-0.027307290857721045
8.48,-0.027237183617670174
8.484,-0.046769311455186736
8.488,-0.045049358620618506
8.492,-0.05085938055658374
8.496,-0.06389993953742668
8.5,-0.017746651278101995
8.504,-0.0709600942484088
8.508000000000001,-0.04741097579539578
8.512,-0.041287088522115246
8.516,-0.08844484346244971
8.52,-0.03063834153475301
8.524000000000001,-0.05234400836904294
8.528,-0.040691548177897795
8.532,-0.05162695508565135
8.536,-0.07552080320428951
8.540000000000001,-0.04073081206911469
8.544,-0.04237377895435727
8.548,-0.024356327416689052
8.552,-0.03462118672039079
8.556000000000001,-0.0775904768972646
8.56,-0.021715677997909417
8.564,-0.027625663168032968
8.568,-0.028029191133365227
8.572000000000001,-0.033441232624906655
8.576,-0.05705231982994578
8.58,-0.03208934422190647
8.584,-0.04982382219321764
8.588000000000001,0.015296320300153002
8.592,-0.046857254285363095
8.596,-0.06409191060879846
8.6,-0.04849432915205688
8.604000000000001,-0.012668501334603677
8.608,-0.052648577210606
8.612,-0.08989245640628142
8.616,-0.011411591506415047
8.620000000000001,-0.03401009360649669
8.624,-0.05024444610750425
8.628,-0.0257933993564397
8.632,-0.05830482611767775
8.636000000000001,-0.06306804191538232
8.64,-0.020312589488293842
8.644,-0.049427622806182826
8.648,-0.028240374526108156
8.652000000000001,-0.03836453916629793
8.656,-0.021681617143647504
8.66,-0.03592367671139956
8.664,-0.07881562979738863
8.668000000000001,-0.023948354663673926
8.672,-0.046796397621260435
8.676,-0.01938416660268302
8.68,-0.03451223380174817
8.684000000000001,-0.008019025062443192
8.688,-0.04250937685791691
8.692,-0.07708538220717559
8.696,-0.0420752402714919
8.700000000000001,-0.025092897851537135
8.704,-0.041941277978274905
8.708,-0.044168100299561155
8.712,-0.005041302745803378
8.716,-0.03727026930555332
8.72,-0.012869009245004726
8.724,-0.030671742814648163
8.728,-0.06226823268962328
8.732,-0.051860054804605704
8.736,-0.03901567027917616
8.74,-0.026281420318372984
8.744,-0.04834749620240338
8.748,-0.060099564105201515
8.752,-0.05180582878992243
8.756,-0.041637292866488713
8.76,-0.04857199663579754
8.764,-0.04222965254719166
8.768,0.007010499365961161
8.772,-0.024321506212276515
8.776,-0.04594578697158412
8.78,-0.02947616412539133
8.784,0.002619225756856733
8.788,-0.015661311507712206
8.792,-0.03031092411488297
8.796,-0.05506261344732012
8.8,-0.06160212789098781
8.804,-0.034105311901475484
8.808,-0.029068106337417483
8.812,-0.059089522548900444
8.816,-0.05301324045027872
8.82,-0.026749815208681978
8.824,-0.069924160095372
8.828,-0.059704127844084035
8.832,-0.025908755333638588
8.836,-0.013292289473390409
8.84,-0.01777531722661828
8.844,-0.0038223196027876577
8.848,0.008128731244126105
8.852,-0.005105440005659462
8.856,-0.02799902676755904
8.86,0.02031163087949608
8.864,0.01176876233631427
8.868,-0.0027278652280542104
8.872,-0.03738306303834964
8.876,-0.012713053031916683
8.88,-0.062244875018099825
8.884,-0.026626328645818605
8.888,-0.0693793712632252
8.892,-0.027604374190021694
8.896,0.0017257100631370044
8.9,-0.018025316818348038
8.904,0.014329367022803467
8.908,-0.017609103212935212
8.912,-0.015156993595546338
8.916,-0.022837040378865258
8.92,-0.005735748367815529
8.924,-0.01665327096843003
8.928,0.008473167362963812
8.932,0.017108048168952446
8.936,-0.007284347698207417
8.94,-0.036840082001760574
8.944,-0.0027369999882353065
8.948,0.013602229718428378
8.952,-8.161569344833364e-05
8.956,-0.006847175864479656
8.96,0.006541638982615741
8.964,0.014501598440480054
8.968,-0.0637236793232446
8.972,0.01934082811124692
8.976,0.004840315022036586
8.98,-0.000604315397466455
8.984,-0.020953671059527328
8.988,-0.0048966274581220826
8.992,0.003145651871750345
8.996,-0.03831145438299465
9.0,0.006795278127883992
9.004,-0.006315906319574401
9.008000000000001,0.022129088101778854
9.012,0.0069799520948891774
9.016,-0.008974209938236112
9.02,-0.0022330566234582926
9.024000000000001,0.013875303051387735
9.028,0.012777448213823525
9.032,0.037664231666989165
9.036,0.042726000778348
9.040000000000001,0.0823026643381844
9.044,0.17280052233973478
9.048,0.2634640468722622
9.052,0.4138464913155996
9.056000000000001,0.5938889325714451
9.06,0.7134216032187283
9.064,0.858397189450913
9.068,0.9877538893493238
9.072000000000001,0.9879173007604055
9.076,0.9540738670390249
9.08,0.8247036528040971
9.084,0.6834319979647716
9.088000000000001,0.5380467241124423
9.092,0.42442456129410305
9.096,0.27201414571511223
9.1,0.13164146610792954
9.104000000000001,0.10617149287157181
9.108,0.07261461590942221
9.112,0.043005983219343
9.116,-0.008584692905443074
9.120000000000001,0.008179516790899462
9.124,0.049254477056375104
9.128,-0.012818056294037922
9.132,0.01242202212513394
9.136000000000001,-0.009052833097671624
9.14,-0.0191115686611657
9.144,-0.001929154370639191
9.148,0.0277225565537936
9.152000000000001,0.03071627369705069
9.156,-0.009689274666924482
9.16,-0.0011157152862669413
9.164,-0.00901700834636085
9.168000000000001,-0.032377943710272986
9.172,0.021709507090206442
9.176,0.04116036120696759
9.18,0.040425973035532886
9.184000000000001,0.0015080144743583428
9.188,0.037804889279653364
9.192,0.03349819064849056
9.196,0.005335525135384297
9.200000000000001,0.012399260230022538
9.204,0.005543918920119909
9.208,0.018117144852499913
9.212,0.05004101773339584
9.216000000000001,-0.004347317994637993
9.22,-0.009305458985314749
9.224,0.032450367762405535
9.228,0.016587322531469214
9.232,-0.022012741910142172
9.236,-0.004029771729037542
9.24,8.12726948068096e-05
9.244,0.004854625475089391
9.248,0.023875560998860634
9.252,0.037735589851137334
9.256,0.015012666476111707
9.26,0.02162256082319403
9.264,0.004151533122904717
9.268,0.039857717421106595
9.272,0.046707646993325025
9.276,0.01495616454861496
9.28,0.0058066120499433
9.284,0.0624533317439476
9.288,0.03995679820351553
9.292,0.003937802170978295
9.296,-0.011657034635452763
9.3,0.01668366253768138
9.304,0.04692333923111365
9.308,0.012441522665586393
9.312,0.01880021092857037
9.316,0.014238349293310956
9.32,0.03749178371752867
9.324,0.052751385849604024
9.328,3.260642637215386e-05
9.332,0.019822624794217106
9.336,0.021963448107142843
9.34,0.013870618960431506
9.344,0.0027685288553003506
9.348,0.043483133033102084
9.352,0.03054184248812886
9.356,0.042190349741517606
9.36,0.05846065973986908
9.364,0.02120176859522335
9.368,0.039695772310409966
9.372,0.021151332149746814
9.376,0.02779610939177123
9.38,0.03658081296611454
9.384,0.02700335635326094
9.388,0.00039195583579902313
9.392,0.06112824510753148
9.396,0.03431895056171258
9.4,0.008714752843947113
9.404,-0.012225012284723127
9.408,0.031822413379735
9.412,0.04571646511503398
9.416,0.05317705827149202
9.42,0.05566655707481698
9.424,0.025993053984985498
9.428,0.04685051559292227
9.432,0.0033812141606091306
9.436,0.037595197911321224
9.44,0.053225957883858296
9.444,0.022973908474385782
9.448,0.032281753338148034
9.452,0.03793619666034585
9.456,0.038880350046335665
9.46,0.06624156431240769
9.464,0.015089657370797451
9.468,0.06383611498669964
9.472,0.01231165567395624
9.476,0.024229480761547052
9.48,0.02234461711120981
9.484,0.03643313472632278
9.488,0.02853641372836064
9.492,0.04840252770359429
9.496,0.03925269268171118
9.5,0.08337592867916313
9.504,0.0472968856959839
9.508000000000001,0.034776570338594555
9.512,0.04759792966702238
9.516,0.05234282960828024
9.52,0.036821955443710044
9.524000000000001,0.018602390431478363
9.528,0.02502240199050887
9.532,0.044969091010275034
9.536,0.05835446736485959
9.540000000000001,0.051555649353013176
9.544,0.04042178523270815
9.548,0.0536976609562624
9.552,0.03278699050996013
9.556000000000001,0.04808009592930154
9.56,0.07156795386875338
9.564,0.06569831026673197
9.568,0.07071124872669501
9.572000000000001,0.036380115152339125
9.576,0.048097029154787675
9.58,0.024024023385332077
9.584,0.06282846316400195
9.588000000000001,0.0361435274123659
9.592,0.018452883234067876
9.596,0.03508929669622901
9.6,0.05032421644567597
9.604000000000001,0.0012661023785494607
9.608,0.017302834600340787
9.612,0.06559633048680935
9.616,0.047952290326640584
9.620000000000001,0.045308766206463624
9.624,0.014198578282491606
9.628,0.07829580200679512
9.632,0.06731364676884587
9.636000000000001,0.06099117831225287
9.64,0.024851887297633955
9.644,0.0588478774989956
9.648,0.07032746867482162
9.652000000000001,0.041062583920602594
9.656,0.04278463471802317
9.66,0.03845151021322997
9.664,0.06006730339704292
9.668000000000001,0.04349832726098452
9.672,0.04202177081211357
9.676,0.019428529949980736
9.68,0.015399328058153756
9.684000000000001,0.06754404383388898
9.688,0.08041480484319191
9.692,0.0663445058969443
9.696,0.07754630054215053
9.700000000000001,0.03849575613858436
9.704,0.04842158161594877
9.708,0.05698513872877597
9.712,0.04632698760147332
9.716000000000001,0.0831475281173905
9.72,0.023300348978041875
9.724,0.038478243551877275
9.728,0.0430552977222876
9.732,0.03598753403650043
9.736,0.06711185921066137
9.74,0.010405643905596257
9.744,0.0731601705450457
9.748,0.06860062581304636
9.752,0.05693358220378351
9.756,0.07861868132485264
9.76,0.09774683294121099
9.764,0.054520604203190944
9.768,0.06555780390954966
9.772,0.05889792053185872
9.776,0.0615708837543833
9.78,0.04111082050620324
9.784,0.03690105506572605
9.788,0.06354846906589186
9.792,0.0410114572695975
9.796,0.07013545537378511
9.8,0.06750639776233396
9.804,0.042719528174509205
9.808,0.05897246410722463
9.812,0.05331640545018284
9.816,0.0490457221367889
9.82,0.07449587788694992
9.824,0.0526874847106553
9.828,0.05657981488914347
9.832,0.013166691129911132
9.836,0.06390859865018776
9.84,0.023217551380007567
9.844,0.044270516446530545
9.848,0.08416603323698854
9.852,0.08768016469310289
9.856,0.04422292366865274
9.86,0.026920934802507825
9.864,0.06008472685212073
9.868,0.044329216729484804
9.872,0.05957756025294369
9.876,0.027226179098048506
9.88,0.07960106260708996
9.884,0.09496919236101942
9.888,0.04877726754294391
9.892,0.08765209908277095
9.896,0.1325830119001836
9.9,0.22943752368499784
9.904,0.27385794907603794
9.908,0.44633363716780805
9.912,0.5903088247087765
9.916,0.7396288815020657
9.92,0.9149807519628169
9.924,0.9671556000662623
9.928,1.0233529587460235
9.932,1.009941206595822
9.936,0.9500758517135235
9.94,0.7923602698125874
9.944,0.6237921268892259
9.948,0.49290445671835936
9.952,0.33670387287221465
9.956,0.22595319278454876
9.96,0.15616672155820455
9.964,0.11901039052980614
9.968,0.13614663691495457
9.972,0.04398633088403142
9.976,0.0628035984402987
9.98,0.050128705599714996
9.984,0.04622946544820905
9.988,0.08099223980400586
9.992,0.06575517646038163
9.996,0.06351577021917602
10.0,0.04092427981900362
10.004,0.03292870622407327
10.008000000000001,0.055623260219868804
10.012,0.043911792762340286
10.016,0.038040932686140505
10.02,0.06277874737608383
10.024000000000001,0.02515847785820779
10.028,0.034593686818266856
10.032,0.06471990232341056
10.036,0.047203436243209045
10.040000000000001,0.06203072680635255
10.044,0.03151782195463286
10.048,0.06247118928286125
10.052,0.034078375498682124
10.056000000000001,0.07519155471556002
10.06,0.06376599130394707
10.064,0.0570722562519693
10.068,0.07831244625572678
10.072000000000001,0.05445613516899304
10.076,0.03468741196353517
10.08,0.07816347155863762
10.084,0.0538808019856955
10.088000000000001,0.0711405037147908
10.092,0.04965294344425631
10.096,0.06965413543392347
10.1,0.02895522232546407
10.104000000000001,0.020795916979050477
10.108,0.01780065386072846
10.112,0.06085266659148864
10.116,0.006206796784132461
10.120000000000001,0.00965260527196242
10.124,0.016715340417290676
10.128,0.0494821555981823
10.132,0.05336429935787998
10.136000000000001,0.028129595680169827
10.14,0.05992415010877555
10.144,0.050353361788307696
10.148,0.06792490432364019
10.152000000000001,0.06237538924535051
10.156,0.029510330228667052
10.16,0.047035662132285244
10.164,0.03952281344595876
10.168000000000001,0.05179883335288999
10.172,0.04638990659029066
10.176,0.04259156694298941
10.18,0.05604705164009491
10.184000000000001,0.042816135618140266
10.188,0.05598199323711398
10.192,0.04177470897921931
10.196,0.037663222056818164
10.200000000000001,0.05895673163347784
10.204,0.0593005420620708
10.208,0.06475815427361387
10.212,0.052302636400741745
10.216000000000001,0.03521762949170753
10.22,0.04295845782723083
10.224,0.04202057806793942
10.228,0.0034943935579949334
10.232000000000001,0.015874797113801294
10.236,0.06843423222577724
10.24,0.0365093022154915
10.244,-0.01952938673385908
10.248,0.03471138858565155
10.252,0.03997890094145474
10.256,0.011936859407025595
10.26,0.08155749207560385
10.264,0.058286030306745014
10.268,0.0517005348177666
10.272,0.03140372410742623
10.276,0.04446584094749594
10.28,0.051345889634266714
10.284,0.04369432998894615
10.288,0.02049996110698451
10.292,0.037303845529146215
10.296,0.035809338602264845
10.3,0.03864421661195663
10.304,0.011700159479813434
10.308,0.03735218124030046
10.312,0.03179443874303199
10.316,0.036081819027461486
10.32,0.03502545834779744
10.324,0.0019449828846719412
10.328,0.04733840427542141
10.332,0.0448217017947199
10.336,0.002749185388830882
10.34,0.027249529959110157
10.344,0.011785235629075706
10.348,0.019335716640191507
10.352,0.047975130000059145
10.356,0.038166654064117
10.36,0.06669101072804501
10.364,0.028616303779969328
10.368,0.004062086670894988
10.372,0.028247208354099235
10.376,-0.023145209777481038
10.38,0.060647836355225346
10.384,0.029900179644647883
10.388,0.03316976175001929
10.392,0.026863797409057817
10.396,0.006421202074472531
10.4,0.02059274917783337
10.404,0.006907084195939427
10.408,0.011920147068790235
10.412,0.028244464551048308
10.416,-0.0028319488722136806
10.42,0.053432030093292116
10.424,-0.000994856065027576
10.428,0.036366096952554786
10.432,0.0066207178567656184
10.436,-0.005892341292832601
10.44,0.026070021900840984
10.444,0.021234231838418896
10.448,0.012948627990750257
10.452,0.01579830971639362
10.456,0.004080430252468075
10.46,0.02449342305273551
10.464,0.0059670379506818055
10.468,0.015502409859864901
10.472,0.036743439411285564
10.476,-0.012174146328001798
10.48,0.002353572831134163
10.484,-0.00020206675988356654
10.488,-0.003070685272765437
10.492,-0.014488972752677064
10.496,0.006417498852674073
10.5,0.014436471031715177
10.504,0.008713087488643568
10.508000000000001,-0.02125424839440867
10.512,0.0235847150066295
10.516,0.023653943134806038
10.52,0.010622286353143948
10.524000000000001,-0.011109394218412892
10.528,-0.008697959476782195
10.532,0.046613005133834276
10.536,0.04169740584387405
10.540000000000001,0.01647265376757356
10.544,-0.011543393816961466
10.548,0.03124462289679217
10.552,0.009254755754567193
10.556000000000001,0.03860274098393355
10.56,-0.006513328380029363
10.564,0.013778366371767018
10.568,-0.00013021694586658108
10.572000000000001,0.018569254900478775
10.576,-0.009402029313966944
10.58,0.02102715818569526
10.584,-0.00529292582899412
10.588000000000001,-0.015749472864021292
10.592,0.012827668237454836
10.596,0.0057745076588916365
10.6,-0.04133099353598889
10.604000000000001,-0.0005527236352500623
10.608,0.0018854891171944642
10.612,0.003131774808878315
10.616,0.039712465773579265
10.620000000000001,-0.01419655108108673
10.624,-0.0021490153938727476
10.628,-0.0360279351275699
10.632,-0.031638154861368256
10.636000000000001,-0.014462022632401997
10.64,-0.006101319847487477
10.644,-0.007844256665594147
10.648,0.008319739750180757
10.652000000000001,0.0098134910716388
10.656,0.014922726515975888
10.66,-0.008840542230663256
10.664,0.0037971947331395424
10.668000000000001,-0.020691483878588084
10.672,0.00036970050709909334
10.676,0.0023588646934689875
10.68,-0.017636185611259906
10.684000000000001,-0.0721644221038173
10.688,-0.021465076434155347
10.692,0.04243431408148056
10.696,-0.011239760016902718
10.700000000000001,-0.02241951775609554
10.704,-0.007989557386397797
10.708,0.01170200600126593
10.712,-0.0042663000436065565
10.716000000000001,-0.015423896407859305
10.72,-0.03725799138175471
10.724,-0.017856194377989607
10.728,-0.03577801760297319
10.732000000000001,-0.004268719041697726
10.736,0.020820436681983922
10.74,0.01687980456517315
10.744,-0.005067920963475619
10.748000000000001,0.008179716364831807
10.752,0.037233935646294694
10.756,0.1340213455662373
10.76,0.22564583569396485
10.764,0.35029035499980016
10.768,0.4880997446202728
10.772,0.6172611512021738
10.776,0.7550768535941023
10.78,0.93446606738355
10.784,0.9585562466561434
10.788,1.0077325468589864
10.792,0.8548094591662644
10.796,0.7490142569826116
10.8,0.5968996764087554
10.804,0.46073875474247816
10.808,0.32431344152824204
10.812,0.18334323041333844
10.816,0.12077791100866112
10.82,0.02560892152915005
10.824,0.0063370587069031155
10.828,-0.027949046329629863
10.832,-0.025487455263252617
10.836,-0.03248752325995977
10.84,-0.016186144527889697
10.844,0.04516181497089944
10.848,-0.0516317150508906
10.852,-0.02879836395090507
10.856,-0.011501735041134949
10.86,-0.02412973738841211
10.864,0.0024280812749376303
10.868,-0.0467010111727876
10.872,-0.011132895595208983
10.876,-0.042622357633987154
10.88,-0.010973623338220044
10.884,-0.024345517687449053
10.888,-0.02308290286982021
10.892,-0.04009423289342859
10.896,-0.06564223287305924
10.9,-0.051110542055051805
10.904,-0.01524838273792331
10.908,-0.034984216038698154
10.912,-0.015341613746565235
10.916,-0.05684150522921145
10.92,-0.017933182672676393
10.924,-0.010923493573431493
10.928,-0.07552444632359814
10.932,-0.02528267219782268
10.936,0.006742400888845652
10.94,-0.04740527901453937
10.944,-0.012682318251213107
10.948,-0.032119456053108376
10.952,-0.016159134442325782
10.956,-0.04123793749251273
10.96,-0.04931243409876854
10.964,-0.04267023386327182
10.968,-0.04169076190578559
10.972,-0.0464794998393061
10.976,-0.052579079611914645
10.98,-0.01325351575554019
10.984,-0.04719979656557963
10.988,-0.059988788539025575
10.992,-0.05488485603683349
10.996,-0.026701578464170928
11.0,-0.08126959772183706
11.004,-0.02704719334476605
11.008000000000001,-0.023012979165097407
11.012,-0.012040885762189698
11.016,-0.04663189918097883
11.02,-0.054485332389321114
11.024000000000001,-0.034862903043759656
11.028,-0.035793614727520934
11.032,-0.012616093484156252
11.036,-0.03801791537846153
11.040000000000001,-0.047863363929653624
11.044,-0.06622905080903824
11.048,-0.04402605126566668
11.052,-0.03859644075475317
11.056000000000001,-0.01674366157854061
11.06,-0.03845063637306896
11.064,-0.01384193064536578
11.068,-0.016241155688660778
11.072000000000001,-0.056577844654772586
11.076,-0.06426425803458946
11.08,-0.05439851544859409
11.084,-0.04661988028809307
11.088000000000001,-0.05830534886208533
11.092,-0.028386518859635015
11.096,-0.02909685050902123
11.1,-0.018647577895315005
11.104000000000001,-0.03742465519829864
11.108,-0.05193428393627082
11.112,-0.035243062246186105
11.116,-0.061792715606906204
11.120000000000001,-0.04084124375300008
11.124,-0.059208782005458545
11.128,-0.02107697210977768
11.132,-0.09763000535347482
11.136000000000001,-0.02763169963713323
11.14,-0.02708637343289136
11.144,-0.04575163778422863
11.148,-0.03835272388977096
11.152000000000001,-0.04118404654926316
11.156,-0.019563145315440792
11.16,-0.012534856287477886
11.164,-0.045570210849830775
11.168000000000001,-0.013267172963123297
11.172,-0.05896609698383511
11.176,-0.03795321699632834
11.18,-0.037667651073921844
11.184000000000001,-0.07178881523362952
11.188,-0.04017059240262463
11.192,-0.06020498209872675
11.196,-0.03111986351956438
11.200000000000001,-0.06491301256597028
11.204,-0.08276030237346518
11.208,-0.07342229455807495
11.212,-0.04711894706546479
11.216000000000001,-0.0414566819914162
11.22,-0.04099330901237379
11.224,-0.06316900096182498
11.228,-0.03227768149342401
11.232000000000001,-0.05913101553961786
11.236,-0.052677864413838996
11.24,-0.028765553976476572
11.244,-0.05169255806184778
11.248000000000001,-0.08614316842723799
11.252,-0.03441093887488557
11.256,-0.04876415668330764
11.26,-0.05658478776165314
11.264,-0.023189065264938302
11.268,-0.061608771064823625
11.272,-0.03607566811815754
11.276,-0.04649403419253174
11.28,0.0026687269285710913
11.284,-0.08532857111920342
11.288,-0.045498936047089274
11.292,-0.04255025567358181
11.296,-0.027572134879679796
11.3,-0.05801515270802185
11.304,-0.06234153124454321
11.308,-0.02190645099794716
11.312,-0.058263700500888145
11.316,-0.04420847423448111
11.32,-0.05086790010757748
11.324,-0.04221974156684686
11.328,-0.0768388016198644
11.332,-0.06077530921448266
11.336,-0.05107108846264628
11.34,-0.04783745966803852
11.344,-0.02808452289692826
11.348,-0.039850002752091045
11.352,-0.038534572645189065
11.356,-0.05117052475040819
11.36,-0.024910116218926005
11.364,-0.06218972088161728
11.368,-0.05197033270541507
11.372,-0.07978752053820534
11.376,-0.07101853213337948
11.38,-0.03305884629464448
11.384,-0.050981464762810146
11.388,-0.08707826029662363
11.392,-0.05086620568897193
11.396,-0.05469817257753238
11.4,-0.07263702194830814
11.404,-0.04325874731678176
11.408,-0.05529145208061214
11.412,-0.04968222569803778
11.416,-0.030985219016258343
11.42,-0.062103673214220854
11.424,-0.02821916216417608
11.428,-0.05506496992095431
11.432,-0.05477678155046683
11.436,-0.02383192924429042
11.44,-0.041947843195547355
11.444,-0.05756110923772642
11.448,-0.051755877342777395
11.452,-0.04502422885457215
11.456,-0.07827476968039554
11.46,-0.03585052748337219
11.464,-0.04916240743712489
11.468,-0.07483641082052374
11.472,-0.06775209607092786
11.476,-0.03153958136681021
11.48,-0.07397878193795282
11.484,-0.005732103560010381
11.488,-0.06986207546410012
11.492,-0.04432261213792216
11.496,-0.09935142771511875
11.5,-0.04968351434018262
11.504,-0.05859451945000271
11.508000000000001,-0.03842112097660099
11.512,-0.04411799350012274
11.516,-0.054549679490629596
11.52,-0.004810541237092465
11.524000000000001,-0.032265271951908356
11.528,-0.06219102054379344
11.532,-0.040478411715215185
11.536,-0.10499693966824791
11.540000000000001,-0.05890454511992959
11.544,-0.022273580154910964
11.548,-0.05811496204492815
11.552,-0.043992301722200054
11.556000000000001,-0.06979444983660282
11.56,-0.03091249576151198
11.564,-0.04412477248525261
11.568,-0.04633382052953938
11.572000000000001,-0.027471653386895004
11.576,-0.013241250859628677
11.58,-0.029749444469506416
11.584,-0.07986840127134791
11.588000000000001,-0.036361068285333545
11.592,-0.03692414050516007
11.596,-0.060509536036025255
11.6,-0.06044989138705388
11.604000000000001,-0.018153345222920995
11.608,0.016488955751361327
11.612,0.07463071783748709
11.616,0.1422771598504076
11.620000000000001,0.2721156862302974
11.624,0.4156367355763617
11.628,0.5627277096973806
11.632,0.7336321346358388
11.636000000000001,0.8456565909298276
11.64,0.907405556619476
11.644,0.9539893321366273
11.648,0.9177642225129122
11.652000000000001,0.8418939891351143
11.656,0.5964143823246845
11.66,0.46828274564377914
11.664,0.3109807481714037
11.668000000000001,0.20921017580711584
11.672,0.09259932759734266
11.676,0.04850173408239057
11.68,0.025564982497852686
11.684000000000001,-0.032296604998288334
11.688,-0.03095556946782246
11.692,-0.0030186865055150773
11.696,-0.02016197680992063
11.700000000000001,-0.0711295504155503
11.704,0.0025319279391834842
11.708,-0.05243321338313018
11.712,-0.03251005987979963
11.716000000000001,-0.04657674817041372
11.72,-0.04711849977448647
11.724,-0.051595890109982695
11.728,-0.025030634196250855
11.732000000000001,-0.052632137450597916
11.736,-0.06202480137494872
11.74,-0.047928039556228395
11.744,-0.0362570637019004
11.748000000000001,-0.0760529944777455
11.752,-0.019776750527193722
11.756,-0.04967650067232864
11.76,-0.020557798570981622
11.764000000000001,-0.0070681721004268935
11.768,-0.02810011768684796
11.772,-0.023379245844026675
11.776,-0.04275868097727635
11.78,-0.046837655048088477
11.784,-0.0710095465497329
11.788,-0.03664457585229822
11.792,-0.043379754047352115
11.796,-0.0794802765288249
11.8,-0.026348570356963294
11.804,-0.0011223888790560105
11.808,-0.023093625595953616
11.812,-0.0075701030700480315
11.816,-0.03584230545901013
11.82,-0.05044718815035157
11.824,-0.02849363268724683
11.828,-0.03636364072026119
11.832,-0.051800614545436274
11.836,-0.008120569332762482
11.84,-0.025018063272784184
11.844,-0.04115744015691153
11.848,-0.02377656461795205
11.852,-0.030304391313717583
11.856,-0.014617810115450082
11.86,0.005296764727632904
11.864,-0.03860748428546746
11.868,-0.049736945353737544
11.872,0.0020610885513142226
11.876,0.02275899280015773
11.88,-0.03693989473190862
11.884,-0.04259996990117354
11.888,-0.04798887782752823
11.892,-0.023789414085312925
11.896,-0.021105238846400434
11.9,-0.02809026205231126
11.904,-0.005748602393036154
11.908,-0.038442801479670365
11.912,-0.03360361158895834
11.916,-0.046412126676537845
11.92,0.006759649341986262
11.924,0.000930520698880808
11.928,0.005948846879663024
11.932,-0.036611574637708505
11.936,0.007364051638791117
11.94,-0.013159868189207304
11.944,-0.004214746669180943
11.948,-0.006572587710238664
11.952,-0.024146844548317746
11.956,-0.020712303205275374
11.96,-0.04767679043089609
11.964,-0.02748582936455991
11.968,-0.020668021580623395
11.972,-0.03880853984422511
11.976,-0.013361121430293514
11.98,0.010597594267546511
11.984,-0.024359898780079596
11.988,-0.03337291986619623
11.992,-0.030729046416993346
11.996,-0.009535647290869781
12.0,0.02197128427990945
12.004,-0.009187210951217547
12.008000000000001,-0.010959733685548697
12.012,-0.036433500321927145
12.016,-0.004614775196859699
12.02,0.0016650240576729404
12.024000000000001,-0.018516063654286007
12.028,-0.010551282965501065
12.032,-0.022789722148753213
12.036,0.005469308601625216
12.040000000000001,0.01786074121968368
12.044,-0.0008345292620588109
12.048,0.002172254360163624
12.052,-0.006501862224660814
12.056000000000001,-0.01994137340062377
12.06,-0.022136161188553802
12.064,-0.01438100547204601
12.068,-0.0035916956766652245
12.072000000000001,-0.00560863921803398
12.076,0.01512833055005881
12.08,0.010107386330023487
12.084,0.025403220676085605
12.088000000000001,0.011661057224068317
12.092,-0.00824068895276895
12.096,-0.0010400515660560377
12.1,-0.0349038270655016
12.104000000000001,0.031130046394058117
12.108,-0.013315177966088153
12.112,-0.009420200295692622
12.116,0.035427379763540164
12.120000000000001,-0.021830545265159665
12.124,-0.012336543197388321
12.128,-0.0008657436024969538
12.132,-0.010754948740321948
12.136000000000001,0.0030336093472998777
12.14,0.006558043701940514
12.144,0.014738368682696401
12.148,0.0003739558053419555
12.152000000000001,0.016754948673363444
12.156,-0.0032786848453262934
12.16,0.015919712165402087
12.164,0.02762067230848937
12.168000000000001,-0.029829571132973326
12.172,0.00056326512664737
12.176,0.009039455398690267
12.18,-0.031742614644516796
12.184000000000001,-0.05451813799646446
12.188,0.012916711763401674
12.192,-0.005750856030682948
12.196,0.0231283390614307
12.200000000000001,0.007731375816770832
12.204,0.008081601857243432
12.208,0.0017768619516648747
12.212,0.011195018114558678
12.216000000000001,-0.008476958905154295
12.22,-0.0002548782288391716
12.224,0.026018209637454374
12.228,0.00574192348300099
12.232000000000001,0.0212530638333149
12.236,0.011400819980582275
12.24,0.00525418599130664
12.244,-0.006836506190958238
12.248000000000001,0.029545052212579373
12.252,-0.0033201668378790797
12.256,0.021026402261962483
12.26,-0.01696950137589425
12.264000000000001,0.01977641274481659
12.268,0.022427369064500914
12.272,0.0024656136809688024
12.276,-0.0166107713270109
12.280000000000001,0.012830079255090613
12.284,0.018391268804493342
12.288,0.006334764871616626
12.292,0.003662515649918211
12.296,0.03559098852265515
12.3,0.01567210157641339
12.304,0.010001180037267205
12.308,0.0354596112968462
12.312,0.018660519133362228
12.316,0.005545831815790084
12.32,0.03710795761797688
12.324,0.01303307629182495
12.328,0.038931168498598845
12.332,0.007567994279100619
12.336,0.0277307513352693
12.34,0.046231463983043244
12.344,0.03112118391637184
12.348,0.03238317967810976
12.352,0.03172314816857957
12.356,0.04020821622325857
12.36,0.025189262615916762
12.364,0.03281270147985984
12.368,0.019763627358370596
12.372,0.06292637952153549
12.376,0.007659806041017403
12.38,0.041730092220538584
12.384,0.006315087439126097
12.388,0.03676061366783147
12.392,0.052482338218711955
12.396,0.005146844008579791
12.4,0.06192123025742552
12.404,0.008483730893569602
12.408,0.011599663609249897
12.412,0.03456620691588439
12.416,0.006773735484644581
12.42,0.048223217660853954
12.424,0.03889828192120854
12.428,-0.024276523934499427
12.432,0.0016935393790595173
12.436,0.015989597861394353
12.44,0.039058676637025
12.444,0.010562814578540192
12.448,0.019287733974101273
12.452,0.04963883191783379
12.456,0.025632168611714218
12.46,0.06645223344291451
12.464,0.061494822189908614
12.468,0.15516905268494843
12.472,0.23614427074822514
12.476,0.28860913815815836
12.48,0.39794902470359067
12.484,0.5667426698986248
12.488,0.7792263559741435
12.492,0.8905103653388142
12.496,1.0204448279185863
12.5,1.008494333336767
12.504,0.9816780726016765
12.508000000000001,0.9005152782795192
12.512,0.7829628098135801
12.516,0.5978446284784803
12.52,0.42707288311686625
12.524000000000001,0.3204867043321196
12.528,0.21362181023482502
12.532,0.1497159778305477
12.536,0.08997144351203269
12.540000000000001,0.05387818337787163
12.544,0.05182344080309468
12.548,-0.004781559947378916
12.552,0.046127732254268396
12.556000000000001,0.06386647801935597
12.56,0.05015029538904768
12.564,0.02049493667895444
12.568,0.009190618030152274
12.572000000000001,0.06564503595606665
12.576,0.029855182997667533
12.58,0.035983616089621175
12.584,0.04479285242551734
12.588000000000001,0.0289320337480165
12.592,0.041643329549753354
12.596,0.07068950482843951
12.6,0.03150423990367716
12.604000000000001,0.07940306951776699
12.608,0.04932955201217212
12.612,0.04829394160374519
12.616,0.06089484440211013
12.620000000000001,0.06061830738873866
12.624,0.0634764042089296
12.628,0.05386887093428473
12.632,0.0315776884666361
12.636000000000001,0.0754572795319371
12.64,0.04052126606922697
12.644,0.02722345599006463
12.648,0.06159208703864433
12.652000000000001,0.056917425087240306
12.656,0.043676533453599425
12.66,0.045933345151745214
12.664,0.05617111674102129
12.668000000000001,0.08286014531142032
12.672,0.04352698961976767
12.676,0.02029811708258346
12.68,0.03412333901257911
12.684000000000001,0.05558317164313692
12.688,0.0416970864475179
12.692,0.032706026347674916
12.696,0.06037146353072169
12.700000000000001,0.060685344948366526
12.704,0.042247751256254414
12.708,0.052028265158992476
12.712,0.03398003706915056
12.716000000000001,0.03465448299497329
12.72,0.04007103988860476
12.724,0.020062589723173062
12.728,0.053701518954929674
12.732000000000001,0.04557169972438511
12.736,0.03721175481283893
12.74,0.049378321181964537
12.744,0.05001163427653975
12.748000000000001,0.032760933103711525
12.752,0.03584625971592108
12.756,0.03191825164114606
12.76,0.07430360757773873
12.764000000000001,0.014543127813447458
12.768,0.04613411236664525
12.772,0.06425275168015344
12.776,0.026427141741626862
12.780000000000001,0.028870880012964794
12.784,0.02850318886317633
12.788,0.012205616581801013
12.792,0.07098996849268865
12.796000000000001,0.04274621793074097
12.8,0.025498880954944656
12.804,0.034659531948050847
12.808,0.050522506347058085
12.812,0.0405200604610384
12.816,0.029296870468428226
12.82,0.056929753907582176
12.824,0.02939385076206526
12.828,0.03909750666062446
12.832,0.050278122507633076
12.836,0.03253057352868897
12.84,0.04840398641799039
12.844,0.03419558154513008
12.848,0.09952111821541595
12.852,0.03875463758080091
12.856,0.0604144779481501
12.86,0.02988024726047419
12.864,0.024665673545112118
12.868,0.04428574224547429
12.872,0.039882872055332884
12.876,0.03996156332197864
12.88,0.046010463096651744
12.884,0.06408483728912275
12.888,0.08437943372051737
12.892,0.08641406278186065
12.896,0.04765695583137951
12.9,0.08262090194418914
12.904,0.07998616985669649
12.908,0.033868307284843885
12.912,0.03656791463218664
12.916,0.04405420418602555
12.92,0.08472084580727877
12.924,0.043011233297751555
12.928,0.04096061232242702
12.932,0.07305817450199972
12.936,0.04196241712779079
12.94,0.04240052894975485
12.944,0.057157702594868416
12.948,0.048672700407568506
12.952,-0.002667676153434141
12.956,0.020318060929053174
12.96,0.058853320851707025
12.964,0.016423150876844733
12.968,0.0689322212135497
12.972,0.04317116271990551
12.976,0.04948075735987659
12.98,0.04994658894180795
12.984,0.008773479810211204
12.988,0.030096851134237827
12.992,0.02328765351802492
12.996,0.048715599333484114
13.0,0.07408929658926962
13.004,0.03933475404768023
13.008000000000001,0.04509770377590922
13.012,0.004946531366175663
13.016,0.03607465064916755
13.02,0.03856915019703618
13.024000000000001,0.03954837142934049
13.028,0.05499375150987519
13.032,0.07078550400665236
13.036,0.04260086831986043
13.040000000000001,0.050569068424835495
13.044,0.011789059138087248
13.048,0.05453824087308539
13.052,0.043070601492737455
13.056000000000001,0.007642703273404529
13.06,0.04879695808810464
13.064,0.02894896242570065
13.068,0.0618439173753003
13.072000000000001,0.05077335415439632
13.076,0.04316684984626585
13.08,0.07535669882129112
13.084,0.038061077941027685
13.088000000000001,0.03495149681221898
13.092,0.04160198380569266
13.096,0.04310410479385567
13.1,0.02377539489229208
13.104000000000001,0.05179563689806849
13.108,0.048698541730290916
13.112,0.029795016046368125
13.116,0.009188574273182475
13.120000000000001,0.06384070467629845
13.124,0.06593076798881098
13.128,0.05766048802106287
13.132,0.05933598576274234
13.136000000000001,0.07536766972105041
13.14,0.04637753099556949
13.144,0.07209519355917954
13.148,0.03684488171269315
13.152000000000001,0.02247764731881632
13.156,0.03994893945114045
13.16,0.033312946677610256
13.164,0.04913944182776893
13.168000000000001,0.07521800975373377
13.172,0.04742462623778508
13.176,0.059712499701261475
13.18,0.08102424647626735
13.184000000000001,0.0742812399422216
13.188,0.0402329087307987
13.192,0.02488503945266377
13.196,0.08024146450585064
13.200000000000001,0.016451976086295006
13.204,0.0013831653399716884
13.208,-0.002339018106287699
13.212,0.060368539999801726
13.216000000000001,0.007570303098676685
13.22,0.03152255900679761
13.224,0.0337315151641093
13.228,0.06202229088539581
13.232000000000001,0.008498468617925803
13.236,0.03656796312833808
13.24,0.04126850166288411
13.244,0.0630530132410249
13.248000000000001,0.029952380540135104
13.252,0.03987105721065798
13.256,0.028620911641948507
13.26,0.05565772879007849
13.264000000000001,0.052410311671828504
13.268,0.025636260281550638
13.272,0.04399641498447543
13.276,0.0032875142332761467
13.280000000000001,0.03387284496005397
13.284,0.01459649517743001
13.288,0.023678672025216188
13.292,0.05184875474309472
13.296000000000001,0.07448164359526224
13.3,0.035940217733602314
13.304,0.029915008323064086
13.308,0.028534141271274658
13.312000000000001,0.05597620005133377
13.316,0.04959113539538641
13.32,0.09577808162357934
13.324,0.14704218041109327
13.328,0.19294816624308447
13.332,0.2663686051132902
13.336,0.41386901703266665
13.34,0.5346835197567789
13.344,0.6738307537864441
13.348,0.8806056356000181
13.352,1.0082143778860364
13.356,1.050196941753156
13.36,1.0011793273307306
13.364,0.8592302594503325
13.368,0.78051428734739
13.372,0.6499179873381641
13.376,0.47069029718701455
13.38,0.3653900764854218
13.384,0.2091390745846366
13.388,0.15408399988192562
13.392,0.09496869499717821
13.396,0.0629643536840505
13.4,0.01131888291654047
13.404,0.027677367199999216
13.408,0.030189626056109836
13.412,0.014589834160022018
13.416,-0.004782677717047202
13.42,0.010958830261047327
13.424,0.0010670339841790943
13.428,0.026695936189638697
13.432,0.03872969091686565
13.436,0.02550928182268413
13.44,0.025953504212261058
13.444,0.014569068648916803
13.448,0.02161848472438877
13.452,-0.021643066507511934
13.456,0.01844208760755088
13.46,0.03433403219127931
13.464,0.00559519935861472
13.468,0.02963948949302539
13.472,-0.014793547336905449
13.476,0.01587182079687129
13.48,0.01076740930767224
13.484,0.02345372049147127
13.488,0.016637384831693153
13.492,0.05789270031372393
13.496,-0.05085621434158216
13.5,-0.01657338322071435
13.504,-0.0014347348006008495
13.508000000000001,0.013584350797165672
13.512,-0.0016912633590652534
13.516,-0.0026900326342999843
13.52,-0.02115164767410419
13.524000000000001,-0.017220319030999912
13.528,-0.007856567748915577
13.532,0.03967148062672609
13.536,-0.007489006758238045
13.540000000000001,0.06374863342568453
13.544,0.029381856584914275
13.548,0.001803468363663143
13.552,0.02358536966018869
13.556000000000001,0.027319719520962845
13.56,-0.01769540165788573
13.564,-0.026616419955267746
13.568,0.0350515547447654
13.572000000000001,-0.014096294777288524
13.576,0.022180433689416364
13.58,0.018034407647479857
13.584,-0.029623017060566352
13.588000000000001,0.01654919868671898
13.592,0.01446714037275948
13.596,0.02850981851272434
13.6,0.00164791353192177
13.604000000000001,0.01107670076130737
13.608,0.009114187223587016
13.612,-0.003626257626057227
13.616,0.03361002117634134
13.620000000000001,0.01971584491428164
13.624,0.030764606009032986
13.628,0.0065940748919813014
13.632,0.02244831264017131
13.636000000000001,-0.020545788211290987
13.64,-0.01429940465630808
13.644,0.017904742321848768
13.648,-0.007219375087909983
13.652000000000001,-0.011021299136069133
13.656,-0.0002890656906997353
13.66,-0.03568402376275533
13.664,-0.0009449439748112755
13.668000000000001,0.005113712512885608
13.672,-0.011587206789035596
13.676,-0.028129798136251005
13.68,0.029236959168650403
13.684000000000001,0.0021679646818196724
13.688,-0.027403484060570586
13.692,-0.019055060237562635
13.696,-0.040127229895444684
13.700000000000001,-0.043033245432979005
13.704,-0.04688551338697307
13.708,-0.0256437493479117
13.712,-0.0008065908176479028
13.716000000000001,0.005165775021631281
13.72,-0.012406009454422056
13.724,0.010019714848120026
13.728,0.0005034608762887402
13.732000000000001,-0.03441065035469338
13.736,-0.028663526752043866
13.74,-0.006398309565520241
13.744,0.0011601259981837801
13.748000000000001,0.00887692691725493
13.752,-0.04094564202331485
13.756,-0.05277628011489127
13.76,0.026463994180395224
13.764000000000001,-0.02006242880406767
13.768,0.005241323829151597
13.772,-0.014486609862047986
13.776,-0.043335691455163465
13.780000000000001,0.012219280239023512
13.784,-0.0068648599182357314
13.788,0.013056309755629467
13.792,-0.00481989133044077
13.796000000000001,-0.03722236363611897
13.8,-0.01849359551264012
13.804,0.001963438991527216
13.808,-0.03233626178823718
13.812000000000001,-0.01503857551964916
13.816,0.0041854372904706165
13.82,-0.044386181084912074
13.824,-0.027385029156844567
13.828,-0.01674481066521616
13.832,-0.001372790820450196
13.836,-0.022891024950854624
13.84,-0.03573128078198709
13.844,-0.010429561431041071
13.848,-0.03432156947253534
13.852,-0.014010227477519212
13.856,-0.015585598070047488
13.86,-0.027075324368208833
13.864,-0.006267711403274177
13.868,-0.00014590457978357063
13.872,-0.05041162509495846
13.876,-0.014094509561289784
13.88,-0.0282028839845088
13.884,-0.03127224640272415
13.888,-0.023864215732225504
13.892,-0.0022880600973548444
13.896,-0.029180101240600477
13.9,-0.033040146106952335
13.904,-0.052061698646128765
13.908,-0.03057245013560555
13.912,-0.02756566158067189
13.916,-0.04700825020646365
13.92,-0.034292424087746735
13.924,-0.018915508932106515
13.928,-0.00095810565776034
13.932,-0.03479711259826011
13.936,0.010583426722548184
13.94,-0.009679807584714161
13.944,-0.01254216931186665
13.948,-0.018324177400147183
13.952,-0.028448550335423838
13.956,-0.04329273680732782
13.96,-0.0323129493525215
13.964,-0.030032943900377418
13.968,-0.0282858962169547
13.972,-0.0009356708338318954
13.976,0.008051274105956338
13.98,-0.021497183404945608
13.984,-0.01248466463339934
13.988,-0.04654670153342651
13.992,-0.07276996498857391
13.996,-0.03531661920630976
14.0,-0.02861821448761022
14.004,-0.005768623837785116
14.008000000000001,0.014309613127564708
14.012,-0.029029456062410343
14.016,-0.008493887395559275
14.02,-0.012611188721207551
14.024000000000001,-0.030797084512864423
14.028,-0.01880823111855738
14.032,-0.027934971446552322
14.036,-0.0048071430613606594
14.040000000000001,-0.057239007260847116
14.044,-0.08273446822285797
14.048,-0.03394908124244304
14.052,-0.018362480405366508
14.056000000000001,-0.016072409466765577
14.06,-0.048694460876310276
14.064,-0.026697015104399598
14.068,-0.05091240596838971
14.072000000000001,-0.02442373432465989
14.076,-0.053230075865426295
14.08,-0.060046520127737785
14.084,-0.01997174080862497
14.088000000000001,-0.06411306380909856
14.092,-0.06875349179440583
14.096,-0.023682434177204878
14.1,-0.037738166924742036
14.104000000000001,-0.08627398854161468
14.108,-0.016572761204381066
14.112,-0.0650290082436388
14.116,-0.04975577145522268
14.120000000000001,-0.04315606565267329
14.124,-0.0008340248243398629
14.128,-0.041804638988970216
14.132,-0.02344799875911018
14.136000000000001,-0.04452568118168941
14.14,-0.03171864070041197
14.144,-0.07029562410149395
14.148,-0.042262556537010436
14.152000000000001,-0.054600510650714744
14.156,-0.06250528838305712
14.16,-0.035570086669071854
14.164,-0.018728980239177812
14.168000000000001,-0.025249642408417726
14.172,-0.03101127733335575
14.176,0.009480820434733476
14.18,0.00732867184568458
14.184000000000001,0.09256611710483147
14.188,0.18155521151908843
14.192,0.28551880236827765
14.196,0.4260459510582436
14.200000000000001,0.5931017137990416
14.204,0.7342975214729753
14.208,0.8664957372691441
14.212,0.9579635344063704
14.216000000000001,0.9097345310332612
14.22,0.9094469960435503
14.224,0.7743022364691533
14.228,0.6168766202098358
14.232000000000001,0.4318590097326579
14.236,0.29638375081444807
14.24,0.17192075759245415
14.244,0.10774353169336903
14.248000000000001,0.04605241536832619
14.252,0.01875590910038686
14.256,-0.02470101022157027
14.26,-0.07771590007410038
14.264000000000001,-0.06225748122100591
14.268,-0.05298557833089927
14.272,-0.04023795266547256
14.276,-0.07731651684035534
14.280000000000001,-0.051662697454701194
14.284,-0.046548623252400514
14.288,-0.059875938843025854
14.292,-0.05187896213830771
14.296000000000001,-0.0028587221968836563
14.3,-0.04872071336248547
14.304,-0.00902276998911073
14.308,-0.04376014998403261
14.312000000000001,-0.06275467877462426
14.316,-0.037709491807394226
14.32,-0.05697155169555066
14.324,-0.05021637653905614
14.328000000000001,-0.09367047492804116
14.332,-0.04214689651360807
14.336,-0.06079366629844285
14.34,-0.026745504506622983
14.344,-0.047127842026715126
14.348,-0.056950363436805825
14.352,-0.07032854761032552
14.356,-0.04910949368018299
14.36,-0.05704955250137808
14.364,-0.0650822742040353
14.368,-0.012520741626625073
14.372,-0.05261322911818842
14.376,-0.03199969712319158
14.38,-0.020592027319457674
14.384,-0.041781031550951024
14.388,-0.037365921842998
14.392,-0.039798651067965346
14.396,-0.03080003465717601
14.4,-0.038452657090219645
14.404,-0.03992428786142913
14.408,-0.04712537674035918
14.412,-0.05946372448547513
14.416,-0.05844816654447528
14.42,-0.06250086117742513
14.424,-0.04599072405491935
14.428,-0.023815884053877082
14.432,-0.06849885787042524
14.436,-0.06185034198398834
14.44,-0.06920983875413791
14.444,-0.05080300798071115
14.448,-0.02936440432217936
14.452,-0.05623534661060879
14.456,-0.04353627399654016
14.46,-0.0955265185077424
14.464,-0.05241183342418599
14.468,-0.03980709578932508
14.472,-0.06154135832257783
14.476,-0.08160541899131496
14.48,-0.040126887696591236
14.484,-0.05132615618558183
14.488,-0.013214866169545224
14.492,-0.0604605481796444
14.496,-0.052001927224902086
14.5,-0.05637186488122305
14.504,-0.046729208855127526
14.508000000000001,-0.08466008644475628
14.512,-0.021673087063149476
14.516,-0.035834418891884726
14.52,-0.05285425574416724
14.524000000000001,-0.05534367054279903
14.528,-0.037844878376120515
14.532,-0.04086471857811873
14.536,-0.05615855914437386
14.540000000000001,-0.05104350261186243
14.544,-0.04081650782545805
14.548,-0.0558940997276113
14.552,-0.05386323177860967
14.556000000000001,-0.05562394400396041
14.56,-0.05419668408516347
14.564,-0.07257671611613414
14.568,-0.06541850923511519
14.572000000000001,-0.03934378341688849
14.576,-0.03090290292591008
14.58,-0.04734676739933258
14.584,-0.11685473633585182
14.588000000000001,-0.0752597220524289
14.592,-0.03774461109099152
14.596,-0.012353850296396851
14.6,-0.021627774142167308
14.604000000000001,-0.049381885232925964
14.608,-0.05207924365673302
14.612,-0.05343095282091617
14.616,-0.010453432746019689
14.620000000000001,-0.03992638261823157
14.624,-0.06251738025164806
14.628,-0.02537891141426648
14.632,-0.02755065259277493
14.636000000000001,-0.08358001445789318
14.64,-0.05596972690542751
14.644,-0.023422945987969783
14.648,-0.02513733403010134
14.652000000000001,-0.06739054521441425
14.656,-0.042670156499073325
14.66,-0.025094921850866158
14.664,-0.0353977307901256
14.668000000000001,-0.06266630956931803
14.672,-0.045338339163233224
14.676,-0.02836967494266786
14.68,-0.03152383032784374
14.684000000000001,-0.05994761984678335
14.688,0.005508395246788089
14.692,-0.03606779461057379
14.696,-0.06979524981875897
14.700000000000001,-0.046426514750830684
14.704,-0.09369078624522059
14.708,-0.052923037447184816
14.712,-0.03995197189758901
14.716000000000001,0.008617983796862468
14.72,-0.03473099324079874
14.724,-0.03102319529475092
14.728,-0.023026376986310555
14.732000000000001,-0.03356229912867237
14.736,-0.04919687006880936
14.74,-0.010403273318892129
14.744,-0.026614232402625775
14.748000000000001,-0.006144434767971347
14.752,-0.015991237524332732
14.756,-0.0543827505192937
14.76,-0.044644386345064055
14.764000000000001,-0.04328384726182967
14.768,-0.042623290239345066
14.772,-0.025899477575861023
14.776,-0.037887260485497544
14.780000000000001,-0.04969091196335801
14.784,-0.0049377888902554685
14.788,-0.006699977113303099
14.792,-0.03239569170000804
14.796000000000001,-0.053601206112502534
14.8,-0.04465809868510888
14.804,-0.04697368940999526
14.808,-0.04935885665646987
14.812000000000001,-0.05061903726543966
14.816,-0.026515062178630807
14.82,-0.025028510514606174
14.824,-0.022097634816867863
14.828000000000001,-0.048491442091018744
14.832,-0.024042992707858916
14.836,0.00947524812302334
14.84,-0.024592463060298293
14.844000000000001,-0.0365410238381837
14.848,0.02497990796216768
14.852,-0.022039304242524555
14.856,-0.040089266985020466
14.86,-0.010189090426625726
14.864,-0.04107710968819436
14.868,-0.03387497412415398
14.872,-0.006687753712400404
14.876,-0.03799317712126513
14.88,-0.054769714236690734
14.884,-0.011524713095739998
14.888,-0.008607553510442883
14.892,-0.051629364843724546
14.896,-0.03110595221594638
14.9,-0.002607700037384083
14.904,-0.01860409338910548
14.908,-0.006775073821173299
14.912,-0.025065494802393833
14.916,-0.034720737270864874
14.92,-0.03290707244274464
14.924,-0.027597820727729396
14.928,-0.01767251452409875
14.932,-0.07352846512651481
14.936,-0.05785639039617
14.94,-0.019820829675327747
14.944,-0.006442095177043089
14.948,-0.03207893234061636
14.952,-0.018620624427964114
14.956,-0.039436182229316816
14.96,-0.04497518867989203
14.964,-0.014467819469554553
14.968,-0.01852026228930239
14.972,-0.02676194295920306
14.976,-0.0418720171070812
14.98,-0.014631320064119664
14.984,-0.016867470147114243
14.988,-0.020241836073658412
14.992,-0.017247300982900466
14.996,-0.02170150493197113
15.0,-0.003950131444933669
15.004,-0.006012334654835496
15.008000000000001,0.02147598950378521
15.012,0.014766399155827985
15.016,-0.012508756343079552
15.02,-0.033507387175697095
15.024000000000001,0.007042642861168369
15.028,-0.008231343477090883
15.032,0.04998217334001674
15.036,0.021613137501292245
15.040000000000001,0.09245908837578401
15.044,0.2077050793392542
15.048,0.28562922883989533
15.052,0.4369650654751471
15.056000000000001,0.593064471638981
15.06,0.7299697153025297
15.064,0.8927378320183224
15.068,0.9494798259598055
15.072000000000001,0.9855392793176134
15.076,0.9888328268933315
15.08,0.8391715720772496
15.084,0.7047876598184055
15.088000000000001,0.5165437071695885
15.092,0.4110925968127259
15.096,0.23849482372192868
15.1,0.14391798085558064
15.104000000000001,0.07868694601492505
15.108,0.028951670233019575
15.112,-0.005326466616838013
15.116,0.0033217640252676617
15.120000000000001,-0.006852990973733904
15.124,-0.0021342252738960395
15.128,-0.02023492421519065
15.132,-0.018804628405502052
15.136000000000001,-0.007280035997083257
15.14,-0.0007776631414878211
15.144,-0.018396560484818417
15.148,-0.0006905669496099142
15.152000000000001,-0.0041493258440374065
15.156,0.02129815236646829
15.16,0.01352511015285234
15.164,0.011347682506197602
15.168000000000001,0.021600099289398246
15.172,-0.009872565170773676
15.176,0.029118020863086826
15.18,0.006826599639234961
15.184000000000001,-0.0058888901782615174
15.188,0.011902162163836993
15.192,-0.016328149862278478
15.196,0.039359405515498255
15.200000000000001,0.010241500734447578
15.204,-0.023273307058207765
15.208,-0.015713432553268777
15.212,-0.0033260891165442976
15.216000000000001,-0.0038941758809514886
15.22,0.016105922956328945
15.224,0.024864750766341037
15.228,0.027929366976291496
15.232000000000001,0.019086526923261304
15.236,-0.009149736434660244
15.24,0.031078546537321422
15.244,0.03359348218813755
15.248000000000001,-0.027445834456482354
15.252,-0.00045750282454721375
15.256,0.004095497041146027
15.26,-0.003737274326587556
15.264000000000001,0.03190827006793536
15.268,0.021053253366214646
15.272,0.013698295370279818
15.276,-0.010737833779162776
15.280000000000001,-0.02656228518347474
15.284,-0.00440398218936652
15.288,-0.0020543905860960845
15.292,-0.0030573119413117404
15.296000000000001,-0.02631157397801816
15.3,-0.014563437400374715
15.304,0.007152957232524876
15.308,0.022364399910321298
15.312000000000001,0.005948254233164968
15.316,0.012060686071469574
15.32,0.015527361414591559
15.324,0.016000180809128805
15.328000000000001,0.04102389378205237
15.332,0.002579372113387643
15.336,0.022430784296208886
15.34,-0.006829584994833694
15.344000000000001,0.04210486705572222
15.348,0.03379636059346584
15.352,0.03924635877329424
15.356,0.02254642760110362
15.36,0.018388123512078868
15.364,-0.00372122079400216
15.368,0.027621604593155213
15.372,0.04836292535295902
15.376,-0.031541379584392265
15.38,0.056721942465221914
15.384,0.007092351029217892
15.388,0.03272109438234865
15.392,0.007922436680556207
15.396,0.021177885654188055
15.4,0.04043227397783276
15.404,0.02131127638768742
15.408,0.060436855921302386
15.412,0.02640086409158978
15.416,0.038630836357951684
15.42,0.014353432125616978
15.424,0.016929922479746427
15.428,0.019302549141354715
15.432,0.0371993746293953
15.436,0.060190328460950404
15.44,0.028767945720579842
15.444,0.003413821169184303
15.448,0.016864062470273035
15.452,0.0024272277587720353
15.456,0.038936580878759196
15.46,0.030341794934957055
15.464,0.009230761175969528
15.468,0.02347376502973307
15.472,0.04910348742265662
15.476,0.04009989392038264
15.48,0.020334877037407346
15.484,0.04646871608076508
15.488,0.03976133810750759
15.492,0.021730238053844386
15.496,0.036349528982884384
15.5,0.06958539637801736
15.504,0.01189822112752387
15.508000000000001,0.0535603167055754
15.512,0.03125865908148741
15.516,0.04662328418216312
15.52,0.042387654550823176
15.524000000000001,0.04037057450937642
15.528,0.03216619564394016
15.532,0.035540855037465145
15.536,0.04896811287145722
15.540000000000001,0.04500817373768791
15.544,0.007872467548013254
15.548,0.04552534739362281
15.552,0.06246413356089404
15.556000000000001,0.05466030371364052
15.56,0.04158078366708639
15.564,0.0021599605311574052
15.568,0.04956094215721297
15.572000000000001,0.05120887685443389
15.576,0.06709409825017698
15.58,0.020190137164400115
15.584,0.03450038023150039
15.588000000000001,0.02897943931629509
15.592,0.03430962962712857
15.596,0.006151843889218467
15.6,0.03085754534983365
15.604000000000001,0.03186123441772265
15.608,0.03315155951520418
15.612,0.07181832279670466
15.616,0.028651122465101868
15.620000000000001,0.03244887394561368
15.624,0.0632491010246723
15.628,0.03058948829402667
15.632,0.0652415168690749
15.636000000000001,0.050785820872499825
15.64,0.02994773760611906
15.644,0.028608818634741302
15.648,0.04532777235466397
15.652000000000001,0.03899387207557518
15.656,0.04491086341874499
15.66,0.03197709344955571
15.664,0.05494072982113162
15.668000000000001,0.030489203985433283
15.672,0.03462446858528977
15.676,0.04043747578338786
15.68,0.019591640291461352
15.684000000000001,0.03813969270951824
15.688,0.04048278653382305
15.692,0.01644524160282013
15.696,0.00985617176440888
15.700000000000001,0.06926268122193664
15.704,0.03993486482828766
15.708,0.04257341761221403
15.712,0.03311228529647445
15.716000000000001,0.07651938902900034
15.72,0.04176888606353911
15.724,0.011055707934504
15.728,0.05567573299066634
15.732000000000001,0.02721400506786432
15.736,0.054928483622489865
15.74,0.043975095404554035
15.744,0.0716200733047568
15.748000000000001,0.05619492885390576
15.752,0.03963772517483722
15.756,0.07509299272273558
15.76,0.10075612991093721
15.764000000000001,0.037069627002351835
15.768,0.06899187133818466
15.772,0.055181350357493136
15.776,0.05678335646540868
15.780000000000001,0.023787770461887313
15.784,0.0290663181103394
15.788,0.076144035944753
15.792,0.051425540536580626
15.796000000000001,0.03811804060514998
15.8,0.08403359127521329
15.804,0.07279773099175976
15.808,0.06333648751938963
15.812000000000001,0.02978974281312318
15.816,0.048872304703872965
15.82,0.07810541315523016
15.824,0.00930398265311582
15.828000000000001,0.018088192098487315
15.832,0.03366663540721793
15.836,0.06861912096009479
15.84,0.054064026721842205
15.844000000000001,0.05887228489218776
15.848,0.05351442169262483
15.852,0.051766935988972515
15.856,0.07354844492547374
15.860000000000001,0.12093420368393293
15.864,0.05923559441645836
15.868,0.07609111695920182
15.872,0.04215622468099725
15.876,0.08377507319427915
15.88,0.057266054229140884
15.884,0.06579693416746803
15.888,0.06686429151953763
15.892,0.0863175778372394
15.896,0.13410704743181268
15.9,0.19396589876610923
15.904,0.28609315232944965
15.908,0.47718798849718086
15.912,0.6022759317927838
15.916,0.7736500760426729
15.92,0.9096393994996858
15.924,0.9766838557010333
15.928,1.050162679534067
15.932,1.006807792039578
15.936,0.9188629973992053
15.94,0.7959977245459681
15.944,0.6426360940245361
15.948,0.4841694554111757
15.952,0.34788084593983626
15.956,0.23221034023690934
15.96,0.16196388431076728
15.964,0.13622577484682746
15.968,0.12493349622303906
15.972,0.08721092572656718
15.976,0.0521252481609952
15.98,0.06032768712700161
15.984,0.06983169389133408
15.988,0.06997638006537672
15.992,0.07397623573466987
15.996,0.074176129021192
16.0,0.05744316199841436
16.004,0.04373830586103721
16.008,0.018602951889099717
16.012,0.07040027876904476
16.016000000000002,0.0612481463230127
16.02,0.031866808632000934
16.024,0.04908421889429903
16.028,0.04074120072101533
16.032,0.039812240541013476
16.036,0.083157373182917
16.04,0.04118243240607411
16.044,0.09652791319032263
16.048000000000002,0.045393880738717314
16.052,0.03365404278593286
16.056,0.0504204281604562
16.06,0.09569461807841795
16.064,0.0444752352868759
16.068,0.05758888011973652
16.072,0.002160611316832893
16.076,0.05880698145130596
16.080000000000002,0.019587432798861073
16.084,0.04444109132373475
16.088,0.07376658531813576
16.092,0.041447942510564974
16.096,0.060602566123772725
16.1,0.04165627907439163
16.104,0.03927886331185214
16.108,0.05133801102670727
16.112000000000002,0.0672973967477767
16.116,0.04741015807422571
16.12,0.04489747821250878
16.124,0.025988328954856567
16.128,0.01126994312025243
16.132,0.04728402989932516
16.136,0.04089920947512483
16.14,0.04970335992828114
16.144000000000002,0.06485785264610976
16.148,0.060283555711975606
16.152,0.02620589023645057
16.156,0.04862117594855901
16.16,0.04888042524470015
16.164,0.038181172267693214
16.168,-0.00205736144873752
16.172,0.026625558751958815
16.176000000000002,0.04050502345699345
16.18,0.05723319035584997
16.184,0.03567538459924921
16.188,0.01382821169318852
16.192,0.0685935816523546
16.196,0.040410932149422776
16.2,0.03179148506245757
16.204,0.05126654995222665
16.208000000000002,0.0541984668607971
16.212,0.038547399957165406
16.216,0.028199829114283682
16.22,0.028248602057614522
16.224,0.05521209032009356
16.228,0.0363001454025307
16.232,0.04871938682131134
16.236,0.00039082999757247133
16.240000000000002,0.028377920520280816
16.244,0.030332862140759198
16.248,0.028261828077839966
16.252,-0.0014736940221249037
16.256,0.028188728864233785
16.26,0.06820660646944886
16.264,0.042600188001209315
16.268,0.025719563303372384
16.272000000000002,0.0215820289576594
16.276,0.008571918312030392
16.28,0.039888426503039795
16.284,0.019396654393207917
16.288,0.02680904834687336
16.292,0.05221722360907188
16.296,0.052954896448298656
16.3,0.046167118407202015
16.304000000000002,0.000379569862710219
16.308,0.02188932044269932
16.312,0.05639659697684515
16.316,0.008877110378853525
16.32,0.05728342301199241
16.324,0.031358503235375056
16.328,0.05050128643844609
16.332,0.02292547121786092
16.336000000000002,0.0076013752375407515
16.34,0.010294836480911927
16.344,0.059346382324819466
16.348,0.023451133761684326
16.352,0.005104079053627877
16.356,0.045547384223526236
16.36,-0.001973702071104897
16.364,0.025301602250433812
16.368000000000002,0.03498628865557739
16.372,0.033730691728757985
16.376,0.03597117560523107
16.38,0.0253807291680665
16.384,-0.022373608609691297
16.388,0.03136439262418682
16.392,0.025222157508474338
16.396,0.021779013258588657
16.4,0.03519281796924515
16.404,0.04038800270780839
16.408,0.028947505769479014
16.412,0.05431744032848593
16.416,0.06784352275409201
16.42,0.02932305578454201
16.424,0.01627149083288317
16.428,-0.0030318883863835987
16.432,0.034038099067009706
16.436,-0.0134163923991359
16.44,0.05547398686887473
16.444,0.040948313890986535
16.448,0.010500460250856528
16.452,0.03426404771757459
16.456,0.002842012504459847
16.46,-0.0021637316487120757
16.464,0.03478141476249171
16.468,-0.0012276537902813356
16.472,0.023659585677877754
16.476,0.015784993193625668
16.48,0.04924296788984721
16.484,0.023863592231506345
16.488,0.048796909352696094
16.492,0.034132410444075154
16.496,0.001041190612307237
16.5,-0.007325473993858404
16.504,-0.026601532971470405
16.508,0.015888885033267092
16.512,-0.04082723575650579
16.516000000000002,-0.0020225499003495157
16.52,-0.03423335038098378
16.524,0.0011385496844539718
16.528,0.027300173620796467
16.532,-0.004777711678333206
16.536,0.0012848298491472798
16.54,0.002790540536535685
16.544,0.01690622020386373
16.548000000000002,-0.018498917182433273
16.552,0.01285307120387539
16.556,0.008207831794772719
16.56,-0.010827841238940006
16.564,-0.010228126557107526
16.568,0.033213960272845955
16.572,0.023073426932110258
16.576,0.016738611304654927
16.580000000000002,-0.008949318671895417
16.584,0.000425485705131283
16.588,-0.01912924781678464
16.592,-0.02877077347206913
16.596,-0.003378142325762834
16.6,-0.006377035735529121
16.604,-0.01977368270358537
16.608,-0.01966060554562602
16.612000000000002,0.011686810377182737
16.616,-0.005395452667902105
16.62,-0.02811905332036456
16.624,0.04386374383670463
16.628,-0.03217902478385275
16.632,0.006450836438793373
16.636,-0.018325635539620223
16.64,0.014888047393230245
16.644000000000002,0.0023513651059171824
16.648,0.02082101456564064
16.652,-0.0013020337722569437
16.656,-0.015452591020074463
16.66,0.028123215179796837
16.664,-0.0023102866589279807
16.668,-0.005769900326168384
16.672,-0.005043466721287621
16.676000000000002,-0.01697017345730749
16.68,0.004199079579059071
16.684,0.03030480779909227
16.688,0.02622727895296422
16.692,0.0018782115343727538
16.696,0.008405094586462025
